SpectraSuite Data File
++++++++++++++++++++++++++++++++++++
Date: Sun Jan 01 00:57:51 GMT-03:00 2006
User: Lavfis
Dark Spectrum Present: Yes
Reference Spectrum Present: Yes
Number of Sampled Component Spectra: 1
Spectrometers: HR4C5405
Integration Time (usec): 4000 (HR4C5405)
Spectra Averaged: 5 (HR4C5405)
Boxcar Smoothing: 3 (HR4C5405)
Correct for Electrical Dark: Yes (HR4C5405)
Strobe/Lamp Enabled: No (HR4C5405)
Correct for Detector Non-linearity: No (HR4C5405)
Correct for Stray Light: No (HR4C5405)
Number of Pixels in Processed Spectrum: 3648
>>>>>Begin Processed Spectral Data<<<<<
194,53	-0,000
194,80	-0,000
195,07	-0,000
195,34	-0,000
195,61	-0,000
195,88	1,724
196,15	-0,251
196,42	-0,000
196,69	-0,000
196,96	-0,000
197,23	-0,550
197,50	-0,000
197,77	-0,000
198,04	-1,971
198,31	0,097
198,58	-0,051
198,85	0,032
199,12	0,052
199,39	0,202
199,66	0,190
199,93	0,401
200,20	0,371
200,47	0,772
200,74	-0,000
201,01	-0,000
201,28	-0,000
201,55	-0,000
201,82	-0,000
202,09	-0,000
202,36	1,189
202,63	0,700
202,90	0,749
203,17	-0,000
203,44	0,697
203,71	0,571
203,98	0,452
204,25	0,614
204,52	0,773
204,79	0,572
205,06	0,524
205,33	0,940
205,60	1,476
205,86	2,444
206,13	-0,000
206,40	-0,000
206,67	-0,000
206,94	-0,000
207,21	-0,000
207,48	-0,000
207,75	-0,000
208,02	-0,000
208,29	-0,000
208,56	-0,000
208,83	-0,000
209,10	1,717
209,37	-0,000
209,64	-0,000
209,91	-0,000
210,18	-0,000
210,45	-0,000
210,72	-0,000
210,99	-0,000
211,26	-0,000
211,53	-0,000
211,80	0,938
212,07	0,846
212,33	0,659
212,60	0,546
212,87	0,548
213,14	0,950
213,41	1,564
213,68	-0,000
213,95	-0,000
214,22	-0,000
214,49	-0,000
214,76	-0,000
215,03	-0,000
215,30	-0,000
215,57	-0,000
215,84	-0,000
216,11	1,275
216,38	0,633
216,65	0,418
216,91	0,360
217,18	0,459
217,45	0,567
217,72	0,625
217,99	0,720
218,26	1,056
218,53	1,220
218,80	-0,000
219,07	-0,000
219,34	0,775
219,61	0,803
219,88	0,748
220,15	0,677
220,42	1,015
220,68	0,696
220,95	0,627
221,22	0,970
221,49	1,293
221,76	1,037
222,03	1,378
222,30	0,829
222,57	0,965
222,84	0,922
223,11	0,935
223,38	0,781
223,65	0,941
223,92	1,161
224,18	-0,000
224,45	-0,000
224,72	-0,000
224,99	1,501
225,26	1,580
225,53	1,583
225,80	1,144
226,07	0,935
226,34	0,901
226,61	1,006
226,88	1,219
227,14	1,597
227,41	1,302
227,68	1,577
227,95	1,432
228,22	1,558
228,49	1,248
228,76	1,212
229,03	1,045
229,30	1,198
229,57	1,125
229,83	1,224
230,10	1,457
230,37	1,616
230,64	1,489
230,91	1,810
231,18	1,573
231,45	1,757
231,72	1,513
231,99	1,238
232,25	1,197
232,52	1,265
232,79	1,226
233,06	1,177
233,33	1,140
233,60	1,130
233,87	1,129
234,14	1,210
234,41	1,082
234,67	1,063
234,94	1,027
235,21	1,037
235,48	1,000
235,75	0,997
236,02	0,940
236,29	1,017
236,56	0,971
236,82	1,003
237,09	0,977
237,36	1,015
237,63	1,081
237,90	1,156
238,17	1,286
238,44	1,433
238,71	1,529
238,97	1,418
239,24	1,565
239,51	1,295
239,78	1,183
240,05	0,940
240,32	0,896
240,59	0,996
240,86	1,102
241,12	0,989
241,39	1,158
241,66	1,011
241,93	1,030
242,20	1,310
242,47	0,931
242,74	0,789
243,00	0,817
243,27	0,823
243,54	1,003
243,81	1,249
244,08	1,097
244,35	1,370
244,62	1,445
244,88	2,635
245,15	1,622
245,42	1,095
245,69	0,948
245,96	0,790
246,23	0,835
246,50	0,921
246,76	1,034
247,03	0,909
247,30	0,936
247,57	1,142
247,84	1,112
248,11	0,956
248,37	0,968
248,64	0,842
248,91	0,879
249,18	0,897
249,45	0,892
249,72	0,886
249,99	0,921
250,25	0,871
250,52	0,854
250,79	0,891
251,06	0,912
251,33	0,819
251,60	0,896
251,86	0,873
252,13	0,799
252,40	0,678
252,67	0,676
252,94	0,676
253,21	0,731
253,47	0,789
253,74	0,846
254,01	0,947
254,28	1,128
254,55	1,125
254,81	1,110
255,08	1,052
255,35	0,944
255,62	0,923
255,89	0,927
256,16	0,922
256,42	0,917
256,69	0,952
256,96	0,969
257,23	1,005
257,50	1,003
257,76	0,989
258,03	0,998
258,30	1,006
258,57	1,001
258,84	0,978
259,11	0,972
259,37	0,969
259,64	0,955
259,91	0,964
260,18	0,980
260,45	0,982
260,71	0,994
260,98	0,986
261,25	0,994
261,52	0,994
261,79	0,976
262,05	0,962
262,32	0,953
262,59	0,948
262,86	0,950
263,13	0,948
263,39	0,956
263,66	0,963
263,93	0,961
264,20	0,965
264,47	0,966
264,73	0,964
265,00	0,958
265,27	0,956
265,54	0,953
265,81	0,954
266,07	0,954
266,34	0,952
266,61	0,958
266,88	0,958
267,15	0,956
267,41	0,957
267,68	0,964
267,95	0,958
268,22	0,952
268,48	0,943
268,75	0,942
269,02	0,937
269,29	0,929
269,56	0,920
269,82	0,921
270,09	0,918
270,36	0,919
270,63	0,915
270,89	0,916
271,16	0,917
271,43	0,908
271,70	0,902
271,97	0,903
272,23	0,901
272,50	0,896
272,77	0,899
273,04	0,900
273,30	0,902
273,57	0,901
273,84	0,898
274,11	0,896
274,37	0,903
274,64	0,897
274,91	0,890
275,18	0,885
275,45	0,882
275,71	0,876
275,98	0,875
276,25	0,868
276,52	0,864
276,78	0,864
277,05	0,865
277,32	0,867
277,59	0,869
277,85	0,863
278,12	0,860
278,39	0,865
278,66	0,864
278,92	0,865
279,19	0,862
279,46	0,864
279,73	0,864
279,99	0,866
280,26	0,861
280,53	0,853
280,80	0,852
281,06	0,852
281,33	0,848
281,60	0,847
281,87	0,842
282,13	0,842
282,40	0,845
282,67	0,843
282,94	0,834
283,20	0,830
283,47	0,830
283,74	0,827
284,01	0,827
284,27	0,823
284,54	0,823
284,81	0,826
285,07	0,825
285,34	0,823
285,61	0,822
285,88	0,822
286,14	0,819
286,41	0,814
286,68	0,813
286,95	0,812
287,21	0,809
287,48	0,808
287,75	0,805
288,02	0,804
288,28	0,803
288,55	0,803
288,82	0,801
289,08	0,801
289,35	0,801
289,62	0,799
289,89	0,799
290,15	0,799
290,42	0,795
290,69	0,793
290,95	0,793
291,22	0,792
291,49	0,790
291,76	0,788
292,02	0,785
292,29	0,785
292,56	0,785
292,82	0,786
293,09	0,783
293,36	0,783
293,63	0,782
293,89	0,783
294,16	0,782
294,43	0,780
294,69	0,775
294,96	0,775
295,23	0,772
295,50	0,773
295,76	0,771
296,03	0,770
296,30	0,768
296,56	0,768
296,83	0,768
297,10	0,768
297,36	0,767
297,63	0,765
297,90	0,763
298,16	0,761
298,43	0,760
298,70	0,759
298,97	0,758
299,23	0,754
299,50	0,755
299,77	0,755
300,03	0,755
300,30	0,753
300,57	0,752
300,83	0,751
301,10	0,752
301,37	0,751
301,63	0,750
301,90	0,749
302,17	0,749
302,44	0,750
302,70	0,750
302,97	0,750
303,24	0,750
303,50	0,748
303,77	0,748
304,04	0,747
304,30	0,745
304,57	0,743
304,84	0,742
305,10	0,740
305,37	0,738
305,64	0,738
305,90	0,738
306,17	0,738
306,44	0,737
306,70	0,735
306,97	0,733
307,24	0,733
307,50	0,732
307,77	0,733
308,04	0,732
308,30	0,731
308,57	0,730
308,84	0,731
309,10	0,730
309,37	0,730
309,64	0,727
309,90	0,726
310,17	0,726
310,44	0,726
310,70	0,724
310,97	0,723
311,24	0,723
311,50	0,724
311,77	0,725
312,04	0,725
312,30	0,724
312,57	0,726
312,84	0,727
313,10	0,726
313,37	0,724
313,63	0,724
313,90	0,725
314,17	0,727
314,43	0,723
314,70	0,719
314,97	0,719
315,23	0,719
315,50	0,718
315,77	0,716
316,03	0,714
316,30	0,715
316,57	0,715
316,83	0,716
317,10	0,717
317,36	0,718
317,63	0,717
317,90	0,717
318,16	0,717
318,43	0,718
318,70	0,717
318,96	0,715
319,23	0,713
319,50	0,714
319,76	0,714
320,03	0,716
320,29	0,715
320,56	0,715
320,83	0,714
321,09	0,713
321,36	0,710
321,63	0,708
321,89	0,707
322,16	0,707
322,42	0,708
322,69	0,709
322,96	0,709
323,22	0,710
323,49	0,712
323,76	0,710
324,02	0,707
324,29	0,706
324,55	0,704
324,82	0,706
325,09	0,706
325,35	0,705
325,62	0,705
325,88	0,706
326,15	0,708
326,42	0,709
326,68	0,709
326,95	0,708
327,21	0,707
327,48	0,708
327,75	0,709
328,01	0,708
328,28	0,707
328,55	0,705
328,81	0,704
329,08	0,705
329,34	0,705
329,61	0,704
329,88	0,703
330,14	0,703
330,41	0,703
330,67	0,707
330,94	0,706
331,21	0,704
331,47	0,704
331,74	0,702
332,00	0,702
332,27	0,700
332,53	0,699
332,80	0,698
333,07	0,699
333,33	0,698
333,60	0,699
333,86	0,699
334,13	0,699
334,40	0,698
334,66	0,697
334,93	0,697
335,19	0,698
335,46	0,698
335,73	0,697
335,99	0,697
336,26	0,697
336,52	0,700
336,79	0,698
337,05	0,698
337,32	0,699
337,59	0,700
337,85	0,701
338,12	0,702
338,38	0,701
338,65	0,702
338,91	0,702
339,18	0,700
339,45	0,701
339,71	0,700
339,98	0,700
340,24	0,699
340,51	0,699
340,77	0,699
341,04	0,698
341,31	0,698
341,57	0,698
341,84	0,697
342,10	0,698
342,37	0,697
342,63	0,697
342,90	0,698
343,17	0,698
343,43	0,697
343,70	0,698
343,96	0,697
344,23	0,699
344,49	0,699
344,76	0,697
345,02	0,699
345,29	0,699
345,56	0,699
345,82	0,700
346,09	0,701
346,35	0,702
346,62	0,704
346,88	0,701
347,15	0,701
347,41	0,699
347,68	0,698
347,94	0,696
348,21	0,695
348,48	0,695
348,74	0,696
349,01	0,697
349,27	0,698
349,54	0,699
349,80	0,700
350,07	0,700
350,33	0,701
350,60	0,700
350,86	0,701
351,13	0,701
351,39	0,702
351,66	0,703
351,93	0,703
352,19	0,702
352,46	0,702
352,72	0,700
352,99	0,701
353,25	0,700
353,52	0,701
353,78	0,702
354,05	0,702
354,31	0,701
354,58	0,702
354,84	0,700
355,11	0,701
355,37	0,699
355,64	0,700
355,90	0,700
356,17	0,701
356,43	0,700
356,70	0,701
356,97	0,700
357,23	0,699
357,50	0,699
357,76	0,700
358,03	0,699
358,29	0,700
358,56	0,701
358,82	0,701
359,09	0,702
359,35	0,702
359,62	0,702
359,88	0,704
360,15	0,705
360,41	0,704
360,68	0,704
360,94	0,703
361,21	0,702
361,47	0,703
361,74	0,702
362,00	0,702
362,27	0,702
362,53	0,702
362,80	0,702
363,06	0,703
363,33	0,701
363,59	0,701
363,86	0,702
364,12	0,705
364,39	0,706
364,65	0,704
364,92	0,704
365,18	0,705
365,45	0,704
365,71	0,704
365,98	0,703
366,24	0,703
366,51	0,704
366,77	0,704
367,04	0,703
367,30	0,704
367,57	0,703
367,83	0,702
368,10	0,701
368,36	0,702
368,63	0,702
368,89	0,702
369,15	0,701
369,42	0,703
369,68	0,703
369,95	0,703
370,21	0,703
370,48	0,702
370,74	0,702
371,01	0,702
371,27	0,702
371,54	0,701
371,80	0,700
372,07	0,699
372,33	0,701
372,60	0,703
372,86	0,703
373,13	0,701
373,39	0,702
373,66	0,703
373,92	0,705
374,18	0,703
374,45	0,701
374,71	0,702
374,98	0,702
375,24	0,702
375,51	0,703
375,77	0,703
376,04	0,703
376,30	0,705
376,57	0,705
376,83	0,706
377,10	0,707
377,36	0,707
377,62	0,707
377,89	0,707
378,15	0,706
378,42	0,706
378,68	0,705
378,95	0,703
379,21	0,700
379,48	0,700
379,74	0,701
380,00	0,702
380,27	0,701
380,53	0,700
380,80	0,700
381,06	0,702
381,33	0,701
381,59	0,700
381,86	0,698
382,12	0,698
382,38	0,698
382,65	0,700
382,91	0,701
383,18	0,702
383,44	0,702
383,71	0,704
383,97	0,706
384,24	0,706
384,50	0,704
384,76	0,704
385,03	0,703
385,29	0,702
385,56	0,702
385,82	0,702
386,09	0,702
386,35	0,701
386,61	0,700
386,88	0,699
387,14	0,698
387,41	0,697
387,67	0,698
387,94	0,699
388,20	0,699
388,46	0,698
388,73	0,698
388,99	0,698
389,26	0,699
389,52	0,697
389,78	0,696
390,05	0,697
390,31	0,699
390,58	0,703
390,84	0,704
391,11	0,704
391,37	0,705
391,63	0,707
391,90	0,708
392,16	0,707
392,43	0,705
392,69	0,706
392,95	0,706
393,22	0,705
393,48	0,704
393,75	0,702
394,01	0,701
394,27	0,700
394,54	0,699
394,80	0,699
395,07	0,701
395,33	0,701
395,59	0,703
395,86	0,704
396,12	0,705
396,39	0,706
396,65	0,705
396,91	0,703
397,18	0,704
397,44	0,704
397,71	0,704
397,97	0,705
398,23	0,705
398,50	0,704
398,76	0,705
399,03	0,705
399,29	0,705
399,55	0,703
399,82	0,703
400,08	0,703
400,34	0,705
400,61	0,705
400,87	0,704
401,14	0,702
401,40	0,704
401,66	0,703
401,93	0,701
402,19	0,701
402,46	0,702
402,72	0,703
402,98	0,704
403,25	0,702
403,51	0,703
403,77	0,705
404,04	0,704
404,30	0,705
404,57	0,706
404,83	0,706
405,09	0,706
405,36	0,706
405,62	0,707
405,88	0,706
406,15	0,706
406,41	0,705
406,67	0,706
406,94	0,707
407,20	0,706
407,47	0,705
407,73	0,705
407,99	0,705
408,26	0,704
408,52	0,704
408,78	0,702
409,05	0,700
409,31	0,700
409,57	0,699
409,84	0,699
410,10	0,701
410,37	0,702
410,63	0,705
410,89	0,708
411,16	0,710
411,42	0,712
411,68	0,713
411,95	0,711
412,21	0,711
412,47	0,710
412,74	0,710
413,00	0,709
413,26	0,708
413,53	0,708
413,79	0,710
414,05	0,707
414,32	0,707
414,58	0,706
414,84	0,706
415,11	0,706
415,37	0,706
415,63	0,705
415,90	0,708
416,16	0,709
416,42	0,710
416,69	0,709
416,95	0,710
417,21	0,710
417,48	0,710
417,74	0,708
418,00	0,708
418,27	0,707
418,53	0,708
418,79	0,710
419,06	0,712
419,32	0,713
419,58	0,714
419,85	0,716
420,11	0,717
420,37	0,716
420,64	0,713
420,90	0,713
421,16	0,711
421,43	0,711
421,69	0,709
421,95	0,709
422,22	0,710
422,48	0,711
422,74	0,711
423,01	0,712
423,27	0,713
423,53	0,712
423,79	0,713
424,06	0,714
424,32	0,713
424,58	0,712
424,85	0,711
425,11	0,712
425,37	0,712
425,64	0,710
425,90	0,707
426,16	0,707
426,43	0,705
426,69	0,706
426,95	0,705
427,21	0,706
427,48	0,706
427,74	0,708
428,00	0,710
428,27	0,712
428,53	0,712
428,79	0,711
429,06	0,712
429,32	0,713
429,58	0,712
429,84	0,711
430,11	0,710
430,37	0,709
430,63	0,709
430,90	0,708
431,16	0,707
431,42	0,709
431,68	0,708
431,95	0,708
432,21	0,712
432,47	0,712
432,74	0,712
433,00	0,712
433,26	0,711
433,52	0,712
433,79	0,712
434,05	0,711
434,31	0,711
434,58	0,712
434,84	0,711
435,10	0,712
435,36	0,710
435,63	0,710
435,89	0,710
436,15	0,709
436,41	0,707
436,68	0,707
436,94	0,705
437,20	0,705
437,47	0,703
437,73	0,702
437,99	0,702
438,25	0,704
438,52	0,705
438,78	0,704
439,04	0,705
439,30	0,707
439,57	0,707
439,83	0,707
440,09	0,708
440,35	0,706
440,62	0,709
440,88	0,709
441,14	0,708
441,41	0,708
441,67	0,708
441,93	0,706
442,19	0,707
442,46	0,704
442,72	0,703
442,98	0,703
443,24	0,703
443,51	0,704
443,77	0,704
444,03	0,703
444,29	0,703
444,56	0,702
444,82	0,704
445,08	0,701
445,34	0,700
445,61	0,699
445,87	0,699
446,13	0,700
446,39	0,699
446,65	0,698
446,92	0,700
447,18	0,701
447,44	0,703
447,70	0,706
447,97	0,706
448,23	0,706
448,49	0,707
448,75	0,707
449,02	0,707
449,28	0,707
449,54	0,705
449,80	0,706
450,07	0,707
450,33	0,707
450,59	0,708
450,85	0,708
451,11	0,708
451,38	0,708
451,64	0,708
451,90	0,709
452,16	0,708
452,43	0,708
452,69	0,709
452,95	0,709
453,21	0,710
453,47	0,709
453,74	0,710
454,00	0,709
454,26	0,710
454,52	0,711
454,79	0,712
455,05	0,712
455,31	0,713
455,57	0,713
455,83	0,714
456,10	0,714
456,36	0,713
456,62	0,713
456,88	0,713
457,14	0,712
457,41	0,713
457,67	0,713
457,93	0,714
458,19	0,716
458,45	0,716
458,72	0,717
458,98	0,718
459,24	0,718
459,50	0,718
459,76	0,717
460,03	0,716
460,29	0,716
460,55	0,715
460,81	0,715
461,07	0,716
461,34	0,717
461,60	0,717
461,86	0,719
462,12	0,720
462,38	0,721
462,65	0,722
462,91	0,722
463,17	0,723
463,43	0,724
463,69	0,723
463,96	0,722
464,22	0,722
464,48	0,722
464,74	0,723
465,00	0,724
465,26	0,725
465,53	0,726
465,79	0,727
466,05	0,727
466,31	0,728
466,57	0,728
466,84	0,728
467,10	0,728
467,36	0,728
467,62	0,729
467,88	0,729
468,14	0,729
468,41	0,728
468,67	0,729
468,93	0,731
469,19	0,731
469,45	0,732
469,71	0,732
469,98	0,732
470,24	0,733
470,50	0,733
470,76	0,733
471,02	0,733
471,28	0,734
471,55	0,736
471,81	0,737
472,07	0,738
472,33	0,738
472,59	0,739
472,85	0,739
473,12	0,738
473,38	0,739
473,64	0,738
473,90	0,738
474,16	0,737
474,42	0,737
474,68	0,737
474,95	0,739
475,21	0,739
475,47	0,739
475,73	0,740
475,99	0,741
476,25	0,741
476,52	0,741
476,78	0,741
477,04	0,741
477,30	0,741
477,56	0,742
477,82	0,742
478,08	0,742
478,35	0,743
478,61	0,743
478,87	0,744
479,13	0,745
479,39	0,745
479,65	0,746
479,91	0,747
480,17	0,747
480,44	0,747
480,70	0,748
480,96	0,747
481,22	0,747
481,48	0,747
481,74	0,748
482,00	0,748
482,27	0,749
482,53	0,749
482,79	0,750
483,05	0,749
483,31	0,750
483,57	0,750
483,83	0,751
484,09	0,749
484,36	0,750
484,62	0,750
484,88	0,751
485,14	0,751
485,40	0,752
485,66	0,751
485,92	0,752
486,18	0,753
486,44	0,753
486,71	0,753
486,97	0,753
487,23	0,753
487,49	0,754
487,75	0,754
488,01	0,754
488,27	0,753
488,53	0,754
488,79	0,754
489,06	0,755
489,32	0,755
489,58	0,756
489,84	0,756
490,10	0,757
490,36	0,758
490,62	0,758
490,88	0,759
491,14	0,760
491,40	0,760
491,67	0,762
491,93	0,762
492,19	0,762
492,45	0,762
492,71	0,762
492,97	0,763
493,23	0,764
493,49	0,765
493,75	0,766
494,01	0,767
494,28	0,768
494,54	0,768
494,80	0,768
495,06	0,769
495,32	0,769
495,58	0,769
495,84	0,768
496,10	0,769
496,36	0,769
496,62	0,771
496,88	0,772
497,14	0,772
497,41	0,775
497,67	0,776
497,93	0,777
498,19	0,777
498,45	0,777
498,71	0,777
498,97	0,777
499,23	0,776
499,49	0,777
499,75	0,777
500,01	0,778
500,27	0,777
500,53	0,778
500,80	0,779
501,06	0,780
501,32	0,781
501,58	0,781
501,84	0,781
502,10	0,781
502,36	0,781
502,62	0,780
502,88	0,781
503,14	0,780
503,40	0,781
503,66	0,782
503,92	0,783
504,18	0,785
504,44	0,786
504,70	0,786
504,97	0,787
505,23	0,787
505,49	0,787
505,75	0,787
506,01	0,787
506,27	0,786
506,53	0,786
506,79	0,786
507,05	0,787
507,31	0,787
507,57	0,789
507,83	0,790
508,09	0,790
508,35	0,791
508,61	0,792
508,87	0,792
509,13	0,793
509,39	0,793
509,65	0,794
509,91	0,795
510,17	0,795
510,43	0,796
510,70	0,796
510,96	0,796
511,22	0,797
511,48	0,797
511,74	0,798
512,00	0,799
512,26	0,800
512,52	0,800
512,78	0,801
513,04	0,800
513,30	0,800
513,56	0,800
513,82	0,801
514,08	0,801
514,34	0,802
514,60	0,803
514,86	0,804
515,12	0,805
515,38	0,806
515,64	0,806
515,90	0,806
516,16	0,807
516,42	0,807
516,68	0,807
516,94	0,807
517,20	0,808
517,46	0,809
517,72	0,811
517,98	0,811
518,24	0,812
518,50	0,814
518,76	0,814
519,02	0,814
519,28	0,814
519,54	0,813
519,80	0,814
520,06	0,815
520,32	0,815
520,58	0,817
520,84	0,817
521,10	0,818
521,36	0,819
521,62	0,820
521,88	0,820
522,14	0,819
522,40	0,818
522,66	0,817
522,92	0,817
523,18	0,817
523,44	0,817
523,70	0,817
523,96	0,818
524,22	0,820
524,48	0,822
524,74	0,823
525,00	0,824
525,26	0,824
525,52	0,824
525,78	0,825
526,04	0,825
526,30	0,825
526,56	0,825
526,82	0,824
527,08	0,825
527,34	0,827
527,60	0,827
527,86	0,826
528,12	0,826
528,38	0,827
528,64	0,827
528,90	0,827
529,16	0,826
529,42	0,825
529,68	0,825
529,94	0,826
530,20	0,825
530,46	0,825
530,72	0,826
530,98	0,826
531,24	0,827
531,50	0,827
531,76	0,826
532,02	0,827
532,28	0,827
532,54	0,826
532,80	0,827
533,06	0,828
533,32	0,828
533,58	0,829
533,84	0,828
534,10	0,829
534,35	0,829
534,61	0,827
534,87	0,826
535,13	0,825
535,39	0,825
535,65	0,826
535,91	0,825
536,17	0,825
536,43	0,825
536,69	0,825
536,95	0,826
537,21	0,826
537,47	0,825
537,73	0,825
537,99	0,825
538,25	0,826
538,51	0,826
538,77	0,825
539,03	0,826
539,29	0,826
539,55	0,826
539,80	0,826
540,06	0,824
540,32	0,825
540,58	0,825
540,84	0,824
541,10	0,823
541,36	0,823
541,62	0,823
541,88	0,824
542,14	0,823
542,40	0,824
542,66	0,823
542,92	0,823
543,18	0,824
543,44	0,824
543,70	0,823
543,95	0,824
544,21	0,823
544,47	0,823
544,73	0,823
544,99	0,822
545,25	0,823
545,51	0,823
545,77	0,823
546,03	0,824
546,29	0,825
546,55	0,824
546,81	0,824
547,07	0,824
547,32	0,825
547,58	0,826
547,84	0,827
548,10	0,826
548,36	0,826
548,62	0,826
548,88	0,824
549,14	0,824
549,40	0,823
549,66	0,824
549,92	0,823
550,18	0,823
550,43	0,825
550,69	0,826
550,95	0,825
551,21	0,827
551,47	0,826
551,73	0,828
551,99	0,829
552,25	0,829
552,51	0,830
552,77	0,831
553,03	0,831
553,28	0,830
553,54	0,831
553,80	0,830
554,06	0,829
554,32	0,830
554,58	0,829
554,84	0,828
555,10	0,828
555,36	0,828
555,61	0,830
555,87	0,830
556,13	0,831
556,39	0,833
556,65	0,834
556,91	0,837
557,17	0,837
557,43	0,837
557,69	0,839
557,94	0,841
558,20	0,842
558,46	0,843
558,72	0,842
558,98	0,843
559,24	0,844
559,50	0,845
559,76	0,844
560,02	0,844
560,27	0,844
560,53	0,845
560,79	0,846
561,05	0,846
561,31	0,846
561,57	0,847
561,83	0,847
562,09	0,847
562,34	0,848
562,60	0,849
562,86	0,849
563,12	0,849
563,38	0,850
563,64	0,850
563,90	0,851
564,15	0,852
564,41	0,852
564,67	0,854
564,93	0,855
565,19	0,855
565,45	0,857
565,71	0,857
565,97	0,857
566,22	0,857
566,48	0,857
566,74	0,857
567,00	0,858
567,26	0,858
567,52	0,860
567,78	0,860
568,03	0,861
568,29	0,862
568,55	0,862
568,81	0,862
569,07	0,862
569,33	0,862
569,58	0,863
569,84	0,864
570,10	0,865
570,36	0,866
570,62	0,866
570,88	0,868
571,14	0,868
571,39	0,868
571,65	0,868
571,91	0,868
572,17	0,868
572,43	0,869
572,69	0,868
572,94	0,870
573,20	0,870
573,46	0,870
573,72	0,870
573,98	0,872
574,24	0,872
574,49	0,872
574,75	0,873
575,01	0,874
575,27	0,875
575,53	0,875
575,79	0,875
576,04	0,874
576,30	0,874
576,56	0,874
576,82	0,874
577,08	0,874
577,33	0,874
577,59	0,874
577,85	0,874
578,11	0,876
578,37	0,876
578,63	0,876
578,88	0,877
579,14	0,876
579,40	0,877
579,66	0,877
579,92	0,877
580,17	0,877
580,43	0,878
580,69	0,877
580,95	0,879
581,21	0,880
581,47	0,879
581,72	0,878
581,98	0,878
582,24	0,878
582,50	0,876
582,76	0,875
583,01	0,876
583,27	0,876
583,53	0,877
583,79	0,876
584,05	0,876
584,30	0,877
584,56	0,876
584,82	0,875
585,08	0,874
585,34	0,872
585,59	0,872
585,85	0,872
586,11	0,872
586,37	0,872
586,63	0,871
586,88	0,870
587,14	0,870
587,40	0,871
587,66	0,870
587,91	0,869
588,17	0,869
588,43	0,868
588,69	0,868
588,95	0,866
589,20	0,865
589,46	0,864
589,72	0,864
589,98	0,863
590,24	0,864
590,49	0,863
590,75	0,864
591,01	0,864
591,27	0,864
591,52	0,864
591,78	0,865
592,04	0,864
592,30	0,863
592,55	0,864
592,81	0,862
593,07	0,862
593,33	0,861
593,59	0,860
593,84	0,861
594,10	0,861
594,36	0,860
594,62	0,861
594,87	0,859
595,13	0,859
595,39	0,859
595,65	0,858
595,90	0,857
596,16	0,857
596,42	0,857
596,68	0,858
596,93	0,857
597,19	0,857
597,45	0,858
597,71	0,859
597,97	0,858
598,22	0,857
598,48	0,856
598,74	0,855
599,00	0,855
599,25	0,854
599,51	0,854
599,77	0,854
600,03	0,854
600,28	0,854
600,54	0,855
600,80	0,855
601,05	0,854
601,31	0,854
601,57	0,854
601,83	0,854
602,08	0,853
602,34	0,853
602,60	0,853
602,86	0,854
603,11	0,854
603,37	0,854
603,63	0,855
603,89	0,855
604,14	0,855
604,40	0,854
604,66	0,854
604,92	0,852
605,17	0,852
605,43	0,851
605,69	0,850
605,94	0,850
606,20	0,850
606,46	0,850
606,72	0,850
606,97	0,850
607,23	0,850
607,49	0,850
607,75	0,851
608,00	0,850
608,26	0,850
608,52	0,850
608,77	0,850
609,03	0,850
609,29	0,850
609,55	0,850
609,80	0,851
610,06	0,852
610,32	0,852
610,57	0,852
610,83	0,851
611,09	0,850
611,35	0,849
611,60	0,848
611,86	0,848
612,12	0,847
612,37	0,846
612,63	0,846
612,89	0,845
613,15	0,845
613,40	0,845
613,66	0,846
613,92	0,846
614,17	0,846
614,43	0,847
614,69	0,847
614,94	0,848
615,20	0,847
615,46	0,846
615,72	0,846
615,97	0,847
616,23	0,845
616,49	0,846
616,74	0,845
617,00	0,845
617,26	0,845
617,51	0,845
617,77	0,844
618,03	0,844
618,28	0,844
618,54	0,843
618,80	0,843
619,05	0,843
619,31	0,842
619,57	0,843
619,83	0,843
620,08	0,843
620,34	0,842
620,60	0,842
620,85	0,841
621,11	0,840
621,37	0,840
621,62	0,840
621,88	0,838
622,14	0,839
622,39	0,839
622,65	0,839
622,91	0,838
623,16	0,837
623,42	0,836
623,68	0,837
623,93	0,836
624,19	0,836
624,45	0,836
624,70	0,836
624,96	0,836
625,22	0,836
625,47	0,836
625,73	0,836
625,99	0,835
626,24	0,834
626,50	0,834
626,76	0,833
627,01	0,833
627,27	0,832
627,53	0,832
627,78	0,831
628,04	0,831
628,30	0,830
628,55	0,829
628,81	0,828
629,07	0,827
629,32	0,826
629,58	0,825
629,83	0,825
630,09	0,825
630,35	0,824
630,60	0,824
630,86	0,823
631,12	0,822
631,37	0,822
631,63	0,822
631,89	0,821
632,14	0,820
632,40	0,819
632,66	0,820
632,91	0,819
633,17	0,818
633,42	0,817
633,68	0,816
633,94	0,816
634,19	0,815
634,45	0,815
634,71	0,815
634,96	0,814
635,22	0,814
635,48	0,814
635,73	0,813
635,99	0,812
636,24	0,810
636,50	0,810
636,76	0,810
637,01	0,808
637,27	0,806
637,53	0,806
637,78	0,806
638,04	0,805
638,29	0,804
638,55	0,804
638,81	0,804
639,06	0,804
639,32	0,803
639,57	0,802
639,83	0,802
640,09	0,801
640,34	0,800
640,60	0,799
640,86	0,798
641,11	0,796
641,37	0,796
641,62	0,795
641,88	0,795
642,14	0,794
642,39	0,793
642,65	0,792
642,90	0,792
643,16	0,791
643,42	0,790
643,67	0,789
643,93	0,788
644,18	0,788
644,44	0,787
644,70	0,786
644,95	0,785
645,21	0,784
645,46	0,783
645,72	0,782
645,98	0,780
646,23	0,780
646,49	0,779
646,74	0,778
647,00	0,777
647,26	0,777
647,51	0,776
647,77	0,775
648,02	0,774
648,28	0,774
648,54	0,774
648,79	0,774
649,05	0,773
649,30	0,771
649,56	0,770
649,81	0,769
650,07	0,767
650,33	0,766
650,58	0,765
650,84	0,765
651,09	0,764
651,35	0,764
651,60	0,763
651,86	0,763
652,12	0,762
652,37	0,761
652,63	0,761
652,88	0,761
653,14	0,760
653,39	0,759
653,65	0,758
653,91	0,757
654,16	0,756
654,42	0,755
654,67	0,754
654,93	0,753
655,18	0,752
655,44	0,751
655,70	0,750
655,95	0,749
656,21	0,749
656,46	0,748
656,72	0,748
656,97	0,747
657,23	0,747
657,49	0,747
657,74	0,746
658,00	0,745
658,25	0,744
658,51	0,743
658,76	0,743
659,02	0,742
659,27	0,741
659,53	0,740
659,78	0,739
660,04	0,738
660,30	0,737
660,55	0,736
660,81	0,735
661,06	0,735
661,32	0,734
661,57	0,733
661,83	0,732
662,08	0,732
662,34	0,731
662,59	0,731
662,85	0,731
663,11	0,729
663,36	0,729
663,62	0,729
663,87	0,728
664,13	0,728
664,38	0,727
664,64	0,727
664,89	0,727
665,15	0,726
665,40	0,725
665,66	0,725
665,91	0,725
666,17	0,723
666,42	0,723
666,68	0,722
666,93	0,722
667,19	0,722
667,45	0,720
667,70	0,720
667,96	0,720
668,21	0,719
668,47	0,719
668,72	0,718
668,98	0,717
669,23	0,717
669,49	0,717
669,74	0,715
670,00	0,715
670,25	0,715
670,51	0,715
670,76	0,714
671,02	0,714
671,27	0,714
671,53	0,714
671,78	0,714
672,04	0,713
672,29	0,713
672,55	0,713
672,80	0,712
673,06	0,712
673,31	0,710
673,57	0,710
673,82	0,709
674,08	0,710
674,33	0,710
674,59	0,709
674,84	0,709
675,10	0,710
675,35	0,710
675,61	0,709
675,86	0,708
676,12	0,707
676,37	0,707
676,63	0,706
676,88	0,705
677,14	0,705
677,39	0,705
677,65	0,705
677,90	0,704
678,16	0,704
678,41	0,704
678,67	0,704
678,92	0,704
679,18	0,704
679,43	0,703
679,69	0,703
679,94	0,703
680,20	0,702
680,45	0,702
680,71	0,701
680,96	0,701
681,21	0,700
681,47	0,700
681,72	0,700
681,98	0,699
682,23	0,699
682,49	0,698
682,74	0,699
683,00	0,699
683,25	0,699
683,51	0,698
683,76	0,698
684,02	0,699
684,27	0,699
684,53	0,699
684,78	0,699
685,04	0,699
685,29	0,700
685,54	0,699
685,80	0,699
686,05	0,698
686,31	0,698
686,56	0,697
686,82	0,697
687,07	0,697
687,33	0,697
687,58	0,697
687,84	0,697
688,09	0,697
688,34	0,697
688,60	0,697
688,85	0,697
689,11	0,697
689,36	0,697
689,62	0,696
689,87	0,696
690,13	0,696
690,38	0,696
690,64	0,696
690,89	0,696
691,14	0,696
691,40	0,697
691,65	0,696
691,91	0,696
692,16	0,695
692,42	0,695
692,67	0,694
692,92	0,694
693,18	0,693
693,43	0,693
693,69	0,693
693,94	0,693
694,20	0,693
694,45	0,692
694,71	0,692
694,96	0,693
695,21	0,693
695,47	0,693
695,72	0,692
695,98	0,692
696,23	0,692
696,48	0,693
696,74	0,692
696,99	0,693
697,25	0,693
697,50	0,693
697,76	0,693
698,01	0,692
698,26	0,692
698,52	0,692
698,77	0,691
699,03	0,690
699,28	0,690
699,54	0,690
699,79	0,690
700,04	0,691
700,30	0,691
700,55	0,691
700,81	0,692
701,06	0,692
701,31	0,692
701,57	0,691
701,82	0,691
702,08	0,691
702,33	0,692
702,58	0,692
702,84	0,693
703,09	0,693
703,35	0,693
703,60	0,692
703,85	0,692
704,11	0,692
704,36	0,691
704,62	0,691
704,87	0,691
705,12	0,691
705,38	0,691
705,63	0,692
705,89	0,693
706,14	0,692
706,39	0,692
706,65	0,693
706,90	0,692
707,16	0,692
707,41	0,691
707,66	0,691
707,92	0,692
708,17	0,692
708,42	0,691
708,68	0,691
708,93	0,691
709,19	0,691
709,44	0,691
709,69	0,691
709,95	0,691
710,20	0,692
710,46	0,692
710,71	0,691
710,96	0,691
711,22	0,691
711,47	0,691
711,72	0,690
711,98	0,689
712,23	0,689
712,48	0,690
712,74	0,689
712,99	0,690
713,25	0,689
713,50	0,689
713,75	0,689
714,01	0,689
714,26	0,689
714,51	0,689
714,77	0,689
715,02	0,689
715,28	0,689
715,53	0,688
715,78	0,688
716,04	0,689
716,29	0,689
716,54	0,689
716,80	0,689
717,05	0,689
717,30	0,690
717,56	0,690
717,81	0,691
718,06	0,691
718,32	0,691
718,57	0,690
718,82	0,691
719,08	0,691
719,33	0,691
719,58	0,691
719,84	0,691
720,09	0,690
720,35	0,691
720,60	0,691
720,85	0,691
721,11	0,690
721,36	0,690
721,61	0,690
721,87	0,690
722,12	0,689
722,37	0,689
722,63	0,689
722,88	0,689
723,13	0,689
723,39	0,689
723,64	0,689
723,89	0,689
724,15	0,688
724,40	0,688
724,65	0,688
724,91	0,688
725,16	0,688
725,41	0,688
725,67	0,689
725,92	0,690
726,17	0,690
726,42	0,691
726,68	0,691
726,93	0,691
727,18	0,691
727,44	0,691
727,69	0,691
727,94	0,691
728,20	0,690
728,45	0,690
728,70	0,690
728,96	0,690
729,21	0,690
729,46	0,690
729,72	0,690
729,97	0,690
730,22	0,691
730,48	0,691
730,73	0,691
730,98	0,690
731,23	0,690
731,49	0,690
731,74	0,689
731,99	0,689
732,25	0,689
732,50	0,689
732,75	0,690
733,01	0,689
733,26	0,689
733,51	0,689
733,76	0,689
734,02	0,688
734,27	0,688
734,52	0,688
734,78	0,689
735,03	0,689
735,28	0,689
735,54	0,689
735,79	0,690
736,04	0,690
736,29	0,690
736,55	0,690
736,80	0,690
737,05	0,691
737,31	0,691
737,56	0,691
737,81	0,690
738,06	0,690
738,32	0,690
738,57	0,690
738,82	0,690
739,07	0,690
739,33	0,689
739,58	0,690
739,83	0,690
740,09	0,690
740,34	0,690
740,59	0,689
740,84	0,689
741,10	0,689
741,35	0,689
741,60	0,688
741,86	0,689
742,11	0,688
742,36	0,689
742,61	0,689
742,87	0,688
743,12	0,688
743,37	0,687
743,62	0,686
743,88	0,687
744,13	0,687
744,38	0,687
744,63	0,687
744,89	0,688
745,14	0,688
745,39	0,689
745,64	0,688
745,90	0,689
746,15	0,688
746,40	0,688
746,65	0,689
746,91	0,689
747,16	0,689
747,41	0,689
747,66	0,689
747,92	0,690
748,17	0,690
748,42	0,690
748,67	0,690
748,93	0,689
749,18	0,690
749,43	0,689
749,68	0,689
749,94	0,690
750,19	0,689
750,44	0,689
750,69	0,690
750,95	0,690
751,20	0,690
751,45	0,690
751,70	0,689
751,96	0,689
752,21	0,689
752,46	0,689
752,71	0,690
752,96	0,689
753,22	0,690
753,47	0,689
753,72	0,690
753,97	0,690
754,23	0,689
754,48	0,689
754,73	0,689
754,98	0,690
755,24	0,690
755,49	0,690
755,74	0,690
755,99	0,691
756,24	0,691
756,50	0,690
756,75	0,690
757,00	0,690
757,25	0,691
757,50	0,690
757,76	0,690
758,01	0,690
758,26	0,691
758,51	0,690
758,77	0,691
759,02	0,691
759,27	0,690
759,52	0,690
759,77	0,689
760,03	0,689
760,28	0,689
760,53	0,688
760,78	0,688
761,03	0,689
761,29	0,689
761,54	0,690
761,79	0,689
762,04	0,690
762,29	0,690
762,55	0,690
762,80	0,689
763,05	0,689
763,30	0,688
763,55	0,688
763,81	0,688
764,06	0,688
764,31	0,688
764,56	0,688
764,81	0,688
765,07	0,688
765,32	0,688
765,57	0,689
765,82	0,689
766,07	0,690
766,32	0,690
766,58	0,690
766,83	0,691
767,08	0,691
767,33	0,691
767,58	0,690
767,84	0,690
768,09	0,690
768,34	0,690
768,59	0,689
768,84	0,689
769,09	0,689
769,35	0,690
769,60	0,690
769,85	0,690
770,10	0,690
770,35	0,690
770,60	0,689
770,86	0,689
771,11	0,689
771,36	0,690
771,61	0,690
771,86	0,690
772,11	0,691
772,37	0,692
772,62	0,691
772,87	0,690
773,12	0,690
773,37	0,689
773,62	0,689
773,88	0,689
774,13	0,689
774,38	0,689
774,63	0,690
774,88	0,691
775,13	0,691
775,38	0,690
775,64	0,690
775,89	0,690
776,14	0,689
776,39	0,689
776,64	0,688
776,89	0,689
777,15	0,690
777,40	0,691
777,65	0,691
777,90	0,692
778,15	0,692
778,40	0,692
778,65	0,692
778,91	0,691
779,16	0,691
779,41	0,691
779,66	0,691
779,91	0,691
780,16	0,690
780,41	0,691
780,66	0,690
780,92	0,690
781,17	0,690
781,42	0,690
781,67	0,691
781,92	0,691
782,17	0,690
782,42	0,690
782,68	0,690
782,93	0,690
783,18	0,689
783,43	0,689
783,68	0,689
783,93	0,689
784,18	0,689
784,43	0,689
784,69	0,690
784,94	0,690
785,19	0,691
785,44	0,690
785,69	0,691
785,94	0,691
786,19	0,692
786,44	0,691
786,69	0,692
786,95	0,692
787,20	0,692
787,45	0,692
787,70	0,691
787,95	0,691
788,20	0,691
788,45	0,691
788,70	0,691
788,95	0,691
789,21	0,690
789,46	0,690
789,71	0,690
789,96	0,690
790,21	0,690
790,46	0,690
790,71	0,689
790,96	0,690
791,21	0,691
791,46	0,689
791,72	0,690
791,97	0,690
792,22	0,690
792,47	0,691
792,72	0,692
792,97	0,691
793,22	0,692
793,47	0,691
793,72	0,690
793,97	0,691
794,22	0,690
794,47	0,690
794,73	0,690
794,98	0,690
795,23	0,690
795,48	0,691
795,73	0,690
795,98	0,690
796,23	0,689
796,48	0,689
796,73	0,690
796,98	0,689
797,23	0,689
797,48	0,690
797,74	0,690
797,99	0,689
798,24	0,690
798,49	0,689
798,74	0,690
798,99	0,689
799,24	0,689
799,49	0,689
799,74	0,690
799,99	0,691
800,24	0,691
800,49	0,690
800,74	0,690
800,99	0,690
801,24	0,689
801,50	0,689
801,75	0,689
802,00	0,689
802,25	0,690
802,50	0,691
802,75	0,691
803,00	0,691
803,25	0,691
803,50	0,691
803,75	0,691
804,00	0,689
804,25	0,689
804,50	0,689
804,75	0,690
805,00	0,689
805,25	0,689
805,50	0,689
805,75	0,690
806,00	0,690
806,26	0,688
806,51	0,688
806,76	0,688
807,01	0,687
807,26	0,687
807,51	0,687
807,76	0,687
808,01	0,688
808,26	0,688
808,51	0,688
808,76	0,689
809,01	0,689
809,26	0,689
809,51	0,689
809,76	0,690
810,01	0,690
810,26	0,690
810,51	0,691
810,76	0,691
811,01	0,692
811,26	0,692
811,51	0,692
811,76	0,691
812,01	0,691
812,26	0,691
812,51	0,690
812,76	0,690
813,01	0,690
813,26	0,689
813,51	0,690
813,76	0,690
814,01	0,690
814,26	0,690
814,51	0,690
814,76	0,691
815,02	0,690
815,27	0,690
815,52	0,690
815,77	0,690
816,02	0,690
816,27	0,690
816,52	0,691
816,77	0,691
817,02	0,692
817,27	0,692
817,52	0,692
817,77	0,692
818,02	0,692
818,27	0,691
818,52	0,691
818,77	0,691
819,02	0,691
819,27	0,691
819,52	0,691
819,77	0,692
820,02	0,692
820,27	0,692
820,52	0,691
820,77	0,690
821,02	0,690
821,27	0,690
821,52	0,690
821,77	0,691
822,02	0,690
822,26	0,691
822,51	0,691
822,76	0,692
823,01	0,692
823,26	0,692
823,51	0,692
823,76	0,693
824,01	0,692
824,26	0,692
824,51	0,692
824,76	0,692
825,01	0,692
825,26	0,691
825,51	0,690
825,76	0,690
826,01	0,690
826,26	0,690
826,51	0,690
826,76	0,689
827,01	0,690
827,26	0,690
827,51	0,692
827,76	0,691
828,01	0,691
828,26	0,691
828,51	0,691
828,76	0,690
829,01	0,690
829,26	0,688
829,51	0,688
829,76	0,689
830,01	0,689
830,26	0,688
830,51	0,689
830,76	0,689
831,00	0,690
831,25	0,690
831,50	0,690
831,75	0,690
832,00	0,691
832,25	0,691
832,50	0,691
832,75	0,691
833,00	0,690
833,25	0,690
833,50	0,690
833,75	0,690
834,00	0,690
834,25	0,690
834,50	0,691
834,75	0,692
835,00	0,691
835,25	0,691
835,50	0,691
835,74	0,691
835,99	0,691
836,24	0,690
836,49	0,690
836,74	0,690
836,99	0,690
837,24	0,690
837,49	0,691
837,74	0,691
837,99	0,692
838,24	0,693
838,49	0,693
838,74	0,693
838,99	0,693
839,24	0,691
839,48	0,691
839,73	0,690
839,98	0,689
840,23	0,689
840,48	0,689
840,73	0,689
840,98	0,688
841,23	0,689
841,48	0,689
841,73	0,690
841,98	0,688
842,23	0,688
842,48	0,687
842,72	0,688
842,97	0,688
843,22	0,688
843,47	0,689
843,72	0,690
843,97	0,690
844,22	0,690
844,47	0,690
844,72	0,689
844,97	0,690
845,22	0,690
845,46	0,690
845,71	0,690
845,96	0,690
846,21	0,690
846,46	0,689
846,71	0,689
846,96	0,688
847,21	0,688
847,46	0,688
847,71	0,689
847,95	0,689
848,20	0,690
848,45	0,689
848,70	0,689
848,95	0,689
849,20	0,689
849,45	0,688
849,70	0,689
849,95	0,687
850,19	0,689
850,44	0,689
850,69	0,688
850,94	0,689
851,19	0,691
851,44	0,691
851,69	0,692
851,94	0,691
852,19	0,691
852,43	0,692
852,68	0,692
852,93	0,690
853,18	0,688
853,43	0,688
853,68	0,688
853,93	0,688
854,18	0,686
854,42	0,686
854,67	0,687
854,92	0,688
855,17	0,688
855,42	0,689
855,67	0,688
855,92	0,689
856,16	0,690
856,41	0,689
856,66	0,690
856,91	0,690
857,16	0,691
857,41	0,692
857,66	0,692
857,91	0,691
858,15	0,692
858,40	0,691
858,65	0,692
858,90	0,693
859,15	0,693
859,40	0,692
859,65	0,692
859,89	0,692
860,14	0,693
860,39	0,692
860,64	0,691
860,89	0,691
861,14	0,693
861,38	0,693
861,63	0,692
861,88	0,692
862,13	0,692
862,38	0,692
862,63	0,691
862,88	0,691
863,12	0,691
863,37	0,692
863,62	0,691
863,87	0,690
864,12	0,690
864,37	0,689
864,61	0,689
864,86	0,689
865,11	0,689
865,36	0,689
865,61	0,690
865,86	0,692
866,10	0,693
866,35	0,693
866,60	0,692
866,85	0,693
867,10	0,692
867,35	0,692
867,59	0,690
867,84	0,690
868,09	0,691
868,34	0,690
868,59	0,690
868,83	0,690
869,08	0,690
869,33	0,690
869,58	0,689
869,83	0,688
870,08	0,688
870,32	0,689
870,57	0,688
870,82	0,688
871,07	0,688
871,32	0,688
871,56	0,688
871,81	0,688
872,06	0,687
872,31	0,688
872,56	0,688
872,81	0,689
873,05	0,690
873,30	0,690
873,55	0,692
873,80	0,693
874,05	0,693
874,29	0,693
874,54	0,692
874,79	0,692
875,04	0,692
875,29	0,691
875,53	0,690
875,78	0,690
876,03	0,690
876,28	0,689
876,52	0,689
876,77	0,690
877,02	0,689
877,27	0,689
877,52	0,689
877,76	0,689
878,01	0,690
878,26	0,690
878,51	0,689
878,76	0,690
879,00	0,689
879,25	0,689
879,50	0,689
879,75	0,688
880,00	0,688
880,24	0,689
880,49	0,689
880,74	0,690
880,99	0,690
881,23	0,690
881,48	0,690
881,73	0,690
881,98	0,691
882,22	0,691
882,47	0,691
882,72	0,692
882,97	0,692
883,22	0,692
883,46	0,693
883,71	0,691
883,96	0,690
884,21	0,691
884,45	0,690
884,70	0,690
884,95	0,690
885,20	0,690
885,44	0,691
885,69	0,692
885,94	0,692
886,19	0,692
886,43	0,692
886,68	0,692
886,93	0,691
887,18	0,690
887,42	0,692
887,67	0,692
887,92	0,692
888,17	0,692
888,42	0,692
888,66	0,692
888,91	0,693
889,16	0,692
889,40	0,691
889,65	0,691
889,90	0,691
890,15	0,692
890,39	0,692
890,64	0,692
890,89	0,692
891,14	0,692
891,38	0,691
891,63	0,691
891,88	0,690
892,13	0,688
892,37	0,688
892,62	0,688
892,87	0,688
893,12	0,688
893,36	0,688
893,61	0,688
893,86	0,688
894,11	0,688
894,35	0,688
894,60	0,688
894,85	0,689
895,09	0,689
895,34	0,690
895,59	0,690
895,84	0,689
896,08	0,689
896,33	0,689
896,58	0,689
896,82	0,689
897,07	0,689
897,32	0,690
897,57	0,690
897,81	0,690
898,06	0,690
898,31	0,691
898,55	0,689
898,80	0,689
899,05	0,689
899,30	0,690
899,54	0,690
899,79	0,690
900,04	0,689
900,28	0,689
900,53	0,689
900,78	0,690
901,03	0,690
901,27	0,691
901,52	0,691
901,77	0,691
902,01	0,691
902,26	0,691
902,51	0,691
902,75	0,690
903,00	0,689
903,25	0,688
903,50	0,689
903,74	0,688
903,99	0,688
904,24	0,688
904,48	0,688
904,73	0,688
904,98	0,688
905,22	0,688
905,47	0,689
905,72	0,689
905,96	0,688
906,21	0,688
906,46	0,689
906,70	0,687
906,95	0,686
907,20	0,686
907,45	0,686
907,69	0,687
907,94	0,688
908,19	0,688
908,43	0,689
908,68	0,689
908,93	0,690
909,17	0,689
909,42	0,689
909,67	0,689
909,91	0,688
910,16	0,688
910,41	0,689
910,65	0,688
910,90	0,689
911,15	0,688
911,39	0,689
911,64	0,689
911,89	0,688
912,13	0,689
912,38	0,689
912,63	0,689
912,87	0,690
913,12	0,690
913,37	0,690
913,61	0,691
913,86	0,690
914,11	0,690
914,35	0,689
914,60	0,689
914,85	0,689
915,09	0,689
915,34	0,689
915,58	0,688
915,83	0,688
916,08	0,688
916,32	0,687
916,57	0,686
916,82	0,686
917,06	0,686
917,31	0,686
917,56	0,686
917,80	0,687
918,05	0,687
918,30	0,687
918,54	0,687
918,79	0,687
919,04	0,687
919,28	0,686
919,53	0,686
919,77	0,685
920,02	0,685
920,27	0,685
920,51	0,684
920,76	0,684
921,01	0,683
921,25	0,684
921,50	0,684
921,74	0,684
921,99	0,684
922,24	0,684
922,48	0,683
922,73	0,684
922,98	0,684
923,22	0,683
923,47	0,683
923,71	0,683
923,96	0,682
924,21	0,683
924,45	0,683
924,70	0,683
924,95	0,683
925,19	0,683
925,44	0,682
925,68	0,682
925,93	0,682
926,18	0,681
926,42	0,681
926,67	0,680
926,91	0,680
927,16	0,679
927,41	0,679
927,65	0,679
927,90	0,679
928,14	0,678
928,39	0,678
928,64	0,678
928,88	0,678
929,13	0,678
929,37	0,678
929,62	0,678
929,87	0,678
930,11	0,679
930,36	0,679
930,60	0,679
930,85	0,678
931,10	0,678
931,34	0,678
931,59	0,678
931,83	0,678
932,08	0,678
932,33	0,678
932,57	0,678
932,82	0,678
933,06	0,679
933,31	0,679
933,56	0,679
933,80	0,679
934,05	0,680
934,29	0,680
934,54	0,680
934,78	0,680
935,03	0,680
935,28	0,680
935,52	0,680
935,77	0,681
936,01	0,682
936,26	0,682
936,51	0,684
936,75	0,684
937,00	0,685
937,24	0,685
937,49	0,684
937,73	0,684
937,98	0,684
938,22	0,684
938,47	0,684
938,72	0,684
938,96	0,684
939,21	0,684
939,45	0,684
939,70	0,684
939,94	0,684
940,19	0,684
940,44	0,685
940,68	0,684
940,93	0,684
941,17	0,684
941,42	0,684
941,66	0,685
941,91	0,685
942,15	0,685
942,40	0,685
942,65	0,686
942,89	0,686
943,14	0,686
943,38	0,686
943,63	0,686
943,87	0,686
944,12	0,686
944,36	0,686
944,61	0,686
944,85	0,686
945,10	0,686
945,35	0,686
945,59	0,685
945,84	0,685
946,08	0,685
946,33	0,686
946,57	0,685
946,82	0,685
947,06	0,685
947,31	0,685
947,55	0,685
947,80	0,684
948,04	0,684
948,29	0,684
948,54	0,684
948,78	0,683
949,03	0,683
949,27	0,683
949,52	0,683
949,76	0,683
950,01	0,683
950,25	0,684
950,50	0,684
950,74	0,684
950,99	0,684
951,23	0,684
951,48	0,685
951,72	0,684
951,97	0,684
952,21	0,684
952,46	0,684
952,70	0,684
952,95	0,684
953,19	0,683
953,44	0,683
953,68	0,683
953,93	0,683
954,17	0,683
954,42	0,683
954,66	0,683
954,91	0,684
955,15	0,684
955,40	0,685
955,64	0,685
955,89	0,685
956,13	0,685
956,38	0,685
956,62	0,685
956,87	0,685
957,11	0,685
957,36	0,685
957,60	0,685
957,85	0,684
958,09	0,684
958,34	0,683
958,58	0,682
958,83	0,682
959,07	0,682
959,32	0,683
959,56	0,682
959,81	0,682
960,05	0,683
960,30	0,684
960,54	0,684
960,79	0,684
961,03	0,683
961,28	0,684
961,52	0,684
961,77	0,684
962,01	0,684
962,26	0,684
962,50	0,684
962,75	0,684
962,99	0,684
963,24	0,684
963,48	0,684
963,73	0,683
963,97	0,683
964,21	0,684
964,46	0,683
964,70	0,683
964,95	0,683
965,19	0,684
965,44	0,684
965,68	0,683
965,93	0,683
966,17	0,684
966,42	0,684
966,66	0,684
966,91	0,683
967,15	0,683
967,40	0,684
967,64	0,683
967,88	0,684
968,13	0,684
968,37	0,684
968,62	0,684
968,86	0,685
969,11	0,685
969,35	0,686
969,60	0,685
969,84	0,686
970,09	0,686
970,33	0,687
970,57	0,687
970,82	0,686
971,06	0,686
971,31	0,686
971,55	0,686
971,80	0,686
972,04	0,686
972,29	0,685
972,53	0,686
972,77	0,686
973,02	0,686
973,26	0,685
973,51	0,684
973,75	0,684
974,00	0,684
974,24	0,684
974,48	0,684
974,73	0,685
974,97	0,685
975,22	0,685
975,46	0,686
975,71	0,685
975,95	0,685
976,19	0,685
976,44	0,685
976,68	0,686
976,93	0,687
977,17	0,687
977,42	0,687
977,66	0,687
977,90	0,686
978,15	0,686
978,39	0,685
978,64	0,685
978,88	0,686
979,12	0,685
979,37	0,684
979,61	0,685
979,86	0,685
980,10	0,686
980,35	0,686
980,59	0,685
980,83	0,686
981,08	0,686
981,32	0,686
981,57	0,686
981,81	0,686
982,05	0,686
982,30	0,687
982,54	0,687
982,79	0,687
983,03	0,686
983,27	0,686
983,52	0,686
983,76	0,686
984,01	0,686
984,25	0,685
984,49	0,686
984,74	0,687
984,98	0,687
985,23	0,687
985,47	0,686
985,71	0,686
985,96	0,687
986,20	0,686
986,45	0,685
986,69	0,685
986,93	0,685
987,18	0,686
987,42	0,687
987,66	0,687
987,91	0,688
988,15	0,689
988,40	0,689
988,64	0,690
988,88	0,689
989,13	0,688
989,37	0,687
989,61	0,686
989,86	0,686
990,10	0,686
990,35	0,686
990,59	0,686
990,83	0,687
991,08	0,687
991,32	0,688
991,56	0,688
991,81	0,687
992,05	0,688
992,30	0,688
992,54	0,688
992,78	0,688
993,03	0,688
993,27	0,687
993,51	0,687
993,76	0,687
994,00	0,687
994,24	0,686
994,49	0,685
994,73	0,685
994,98	0,685
995,22	0,685
995,46	0,685
995,71	0,686
995,95	0,687
996,19	0,688
996,44	0,688
996,68	0,689
996,92	0,689
997,17	0,688
997,41	0,687
997,65	0,686
997,90	0,686
998,14	0,685
998,38	0,685
998,63	0,683
998,87	0,683
999,11	0,684
999,36	0,684
999,60	0,684
999,84	0,684
1000,09	0,684
1000,33	0,684
1000,57	0,685
1000,82	0,686
1001,06	0,686
1001,30	0,687
1001,55	0,687
1001,79	0,688
1002,03	0,686
1002,28	0,685
1002,52	0,684
1002,76	0,683
1003,01	0,682
1003,25	0,682
1003,49	0,682
1003,74	0,683
1003,98	0,683
1004,22	0,683
1004,47	0,684
1004,71	0,684
1004,95	0,684
1005,20	0,684
1005,44	0,684
1005,68	0,686
1005,93	0,685
1006,17	0,684
1006,41	0,683
1006,66	0,683
1006,90	0,683
1007,14	0,682
1007,38	0,681
1007,63	0,682
1007,87	0,682
1008,11	0,683
1008,36	0,683
1008,60	0,683
1008,84	0,683
1009,09	0,684
1009,33	0,683
1009,57	0,682
1009,81	0,684
1010,06	0,685
1010,30	0,685
1010,54	0,686
1010,79	0,685
1011,03	0,685
1011,27	0,685
1011,52	0,684
1011,76	0,684
1012,00	0,685
1012,24	0,685
1012,49	0,685
1012,73	0,684
1012,97	0,684
1013,22	0,685
1013,46	0,684
1013,70	0,684
1013,94	0,683
1014,19	0,684
1014,43	0,685
1014,67	0,685
1014,92	0,685
1015,16	0,686
1015,40	0,687
1015,64	0,687
1015,89	0,687
1016,13	0,687
1016,37	0,687
1016,62	0,686
1016,86	0,686
1017,10	0,685
1017,34	0,684
1017,59	0,683
1017,83	0,682
1018,07	0,682
1018,31	0,683
1018,56	0,682
1018,80	0,684
1019,04	0,685
1019,28	0,685
1019,53	0,686
1019,77	0,686
1020,01	0,686
1020,26	0,686
1020,50	0,686
1020,74	0,686
1020,98	0,686
1021,23	0,687
1021,47	0,686
1021,71	0,686
1021,95	0,685
1022,20	0,685
1022,44	0,684
1022,68	0,684
1022,92	0,683
1023,17	0,683
1023,41	0,685
1023,65	0,685
1023,89	0,684
1024,14	0,685
1024,38	0,686
1024,62	0,687
1024,86	0,687
1025,11	0,686
1025,35	0,686
1025,59	0,686
1025,83	0,685
1026,07	0,683
1026,32	0,681
1026,56	0,680
1026,80	0,680
1027,04	0,680
1027,29	0,680
1027,53	0,680
1027,77	0,681
1028,01	0,684
1028,26	0,686
1028,50	0,686
1028,74	0,686
1028,98	0,685
1029,22	0,685
1029,47	0,686
1029,71	0,685
1029,95	0,684
1030,19	0,684
1030,44	0,684
1030,68	0,686
1030,92	0,686
1031,16	0,684
1031,40	0,683
1031,65	0,682
1031,89	0,683
1032,13	0,683
1032,37	0,683
1032,62	0,681
1032,86	0,684
1033,10	0,685
1033,34	0,686
1033,58	0,685
1033,83	0,684
1034,07	0,685
1034,31	0,687
1034,55	0,686
1034,79	0,687
1035,04	0,687
1035,28	0,687
1035,52	0,686
1035,76	0,684
1036,00	0,683
1036,25	0,683
1036,49	0,682
1036,73	0,680
1036,97	0,682
1037,21	0,683
1037,46	0,685
1037,70	0,686
1037,94	0,686
1038,18	0,687
1038,42	0,688
1038,67	0,687
1038,91	0,687
1039,15	0,686
1039,39	0,685
1039,63	0,687
1039,88	0,685
1040,12	0,685
1040,36	0,686
1040,60	0,684
1040,84	0,684
1041,08	0,681
1041,33	0,679
1041,57	0,679
1041,81	0,679
1042,05	0,676
1042,29	0,679
1042,53	0,680
1042,78	0,682
1043,02	0,683
1043,26	0,683
1043,50	0,682
1043,74	0,681
1043,99	0,680
1044,23	0,679
1044,47	0,677
1044,71	0,675
1044,95	0,676
1045,19	0,677
1045,44	0,681
1045,68	0,680
1045,92	0,681
1046,16	0,682
1046,40	0,681
1046,64	0,679
1046,88	0,678
1047,13	0,676
1047,37	0,677
1047,61	0,678
1047,85	0,682
1048,09	0,684
1048,33	0,685
1048,58	0,686
1048,82	0,689
1049,06	0,689
1049,30	0,687
1049,54	0,685
1049,78	0,686
1050,02	0,687
1050,27	0,689
1050,51	0,688
1050,75	0,685
1050,99	0,684
1051,23	0,687
1051,47	0,687
1051,71	0,689
1051,96	0,687
1052,20	0,688
1052,44	0,692
1052,68	0,691
1052,92	0,690
1053,16	0,686
1053,40	0,686
1053,65	0,687
1053,89	0,688
1054,13	0,689
1054,37	0,689
1054,61	0,690
1054,85	0,695
1055,09	0,694
1055,33	0,695
1055,58	0,693
1055,82	0,693
1056,06	0,696
1056,30	0,694
1056,54	0,692
1056,78	0,688
1057,02	0,683
1057,26	0,682
1057,51	0,684
1057,75	0,680
1057,99	0,682
1058,23	0,681
1058,47	0,683
1058,71	0,686
1058,95	0,689
1059,19	0,684
1059,43	0,685
1059,68	0,687
1059,92	0,688
1060,16	0,689
1060,40	0,690
1060,64	0,685
1060,88	0,686
1061,12	0,685
1061,36	0,685
1061,60	0,684
1061,84	0,685
1062,09	0,683
1062,33	0,685
1062,57	0,687
1062,81	0,688
1063,05	0,687
1063,29	0,684
1063,53	0,685
1063,77	0,685
1064,01	0,680
1064,25	0,680
1064,50	0,683
1064,74	0,684
1064,98	0,687
1065,22	0,681
1065,46	0,683
1065,70	0,686
1065,94	0,685
1066,18	0,685
1066,42	0,682
1066,66	0,681
1066,90	0,688
1067,14	0,688
1067,39	0,687
1067,63	0,688
1067,87	0,689
1068,11	0,693
1068,35	0,692
1068,59	0,690
1068,83	0,689
1069,07	0,688
1069,31	0,686
1069,55	0,684
1069,79	0,684
1070,03	0,687
1070,27	0,685
1070,52	0,683
1070,76	0,688
1071,00	0,691
1071,24	0,691
1071,48	0,683
1071,72	0,680
1071,96	0,683
1072,20	0,688
1072,44	0,683
1072,68	0,679
1072,92	0,676
1073,16	0,680
1073,40	0,682
1073,64	0,679
1073,88	0,670
1074,12	0,674
1074,36	0,675
1074,61	0,673
1074,85	0,668
1075,09	0,666
1075,33	0,667
1075,57	0,671
1075,81	0,671
1076,05	0,673
1076,29	0,678
1076,53	0,685
1076,77	0,686
1077,01	0,682
1077,25	0,678
1077,49	0,684
1077,73	0,688
1077,97	0,685
1078,21	0,687
1078,45	0,687
1078,69	0,691
1078,93	0,696
1079,17	0,693
1079,41	0,688
1079,65	0,687
1079,89	0,682
1080,13	0,683
1080,37	0,680
1080,61	0,681
1080,86	0,680
1081,10	0,680
1081,34	0,683
1081,58	0,681
1081,82	0,680
1082,06	0,686
1082,30	0,686
1082,54	0,687
1082,78	0,691
1083,02	0,694
1083,26	0,698
1083,50	0,698
1083,74	0,696
1083,98	0,693
1084,22	0,689
1084,46	0,682
1084,70	0,677
1084,94	0,673
1085,18	0,677
1085,42	0,669
1085,66	0,669
1085,90	0,673
1086,14	0,671
1086,38	0,666
1086,62	0,664
1086,86	0,658
1087,10	0,667
1087,34	0,673
1087,58	0,671
1087,82	0,670
1088,06	0,680
1088,30	0,689
1088,54	0,697
1088,78	0,699
1089,02	0,688
1089,26	0,692
1089,50	0,693
1089,74	0,690
1089,98	0,689
1090,22	0,689
1090,46	0,684
1090,70	0,695
1090,94	0,695
1091,18	0,702
1091,42	0,706
1091,66	0,691
1091,90	0,686
1092,14	0,683
1092,38	0,684
1092,62	0,679
1092,86	0,676
1093,10	0,670
1093,34	0,694
1093,58	0,696
1093,82	0,701
1094,06	0,687
1094,30	0,692
1094,54	0,689
1094,78	0,694
1095,01	0,690
1095,25	0,689
1095,49	0,674
1095,73	0,683
1095,97	0,689
1096,21	0,697
1096,45	0,693
1096,69	0,681
1096,93	0,679
1097,17	0,704
1097,41	0,708
1097,65	0,703
1097,89	0,694
1098,13	0,692
1098,37	0,699
1098,61	0,703
1098,85	0,700
1099,09	0,696
1099,33	0,692
1099,57	0,702
1099,81	0,702
1100,05	0,701
1100,29	0,700
1100,53	0,702
1100,77	0,690
1101,00	0,683
1101,24	0,687
1101,48	0,682
1101,72	0,674
1101,96	0,680
1102,20	0,662
1102,44	0,661
1102,68	0,662
1102,92	0,655
1103,16	0,655
1103,40	0,675
1103,64	0,660
1103,88	0,675
1104,12	0,687
1104,36	0,699
1104,60	0,709
1104,84	0,732
1105,07	0,711
1105,31	0,713
1105,55	0,714
1105,79	0,705
1106,03	0,697
1106,27	0,685
1106,51	0,678
1106,75	0,671
1106,99	0,684
1107,23	0,680
1107,47	0,686
1107,71	0,686
1107,95	0,672
1108,18	0,673
1108,42	0,668
1108,66	0,677
1108,90	0,644
1109,14	0,665
1109,38	0,668
1109,62	0,687
1109,86	0,699
1110,10	0,745
1110,34	0,718
1110,58	0,750
1110,82	0,725
1111,05	0,726
1111,29	0,732
1111,53	0,740
1111,77	0,710
1112,01	0,712
1112,25	0,723
1112,49	0,716
1112,73	0,746
1112,97	0,771
1113,21	0,754
1113,45	0,769
1113,68	0,783
1113,92	0,794
1114,16	0,804
1114,40	0,748
1114,64	0,716
1114,88	0,709
1115,12	0,703
1115,36	0,700
1115,60	0,684
1115,83	0,670
1116,07	0,675
1116,31	0,658
1116,55	0,652
1116,79	0,645
1117,03	0,647
1117,27	0,651
1117,51	0,671
1117,75	0,708
1117,98	0,718
1118,22	0,744
1118,46	0,742
1118,70	0,722
1118,94	0,718
1119,18	0,707
1119,42	0,687
1119,66	0,680
1119,89	0,653
1120,13	0,679
1120,37	0,695
1120,61	0,679
1120,85	0,703
1121,09	0,702
1121,33	0,736
1121,57	0,779
1121,80	0,777
1122,04	0,755
1122,28	0,746
1122,52	0,673
1122,76	0,659
1123,00	0,653
1123,24	0,437
1123,47	0,662
1123,71	0,764
>>>>>End Processed Spectral Data<<<<<
