SpectraSuite Data File
++++++++++++++++++++++++++++++++++++
Date: Sun Jan 01 02:25:33 GMT-03:00 2006
User: Lavfis
Dark Spectrum Present: Yes
Reference Spectrum Present: No
Number of Sampled Component Spectra: 1
Spectrometers: HR4C5405
Integration Time (usec): 80000 (HR4C5405)
Spectra Averaged: 1 (HR4C5405)
Boxcar Smoothing: 0 (HR4C5405)
Correct for Electrical Dark: Yes (HR4C5405)
Strobe/Lamp Enabled: No (HR4C5405)
Correct for Detector Non-linearity: No (HR4C5405)
Correct for Stray Light: No (HR4C5405)
Number of Pixels in Processed Spectrum: 3648
>>>>>Begin Processed Spectral Data<<<<<
194,53	-11,00
194,80	2,64
195,07	2,64
195,34	2,64
195,61	-9,36
195,88	-4,36
196,15	12,64
196,42	6,64
196,69	-6,36
196,96	-10,36
197,23	-13,36
197,50	-17,36
197,77	-11,36
198,04	-16,36
198,31	2,64
198,58	-9,36
198,85	-1,36
199,12	3,64
199,39	-5,36
199,66	17,64
199,93	13,64
200,20	2,64
200,47	3,64
200,74	6,64
201,01	0,64
201,28	2,64
201,55	1,64
201,82	-12,36
202,09	-8,36
202,36	-6,36
202,63	-13,36
202,90	-15,36
203,17	-6,36
203,44	4,64
203,71	1,64
203,98	-6,36
204,25	5,64
204,52	-15,36
204,79	9,64
205,06	-13,36
205,33	9,64
205,60	22,64
205,86	23,64
206,13	14,64
206,40	-17,36
206,67	-9,36
206,94	6,64
207,21	-2,36
207,48	-7,36
207,75	-8,36
208,02	-11,36
208,29	13,64
208,56	-0,36
208,83	-1,36
209,10	11,64
209,37	24,64
209,64	-4,36
209,91	18,64
210,18	0,64
210,45	-3,36
210,72	-16,36
210,99	20,64
211,26	-6,36
211,53	-8,36
211,80	4,64
212,07	13,64
212,33	4,64
212,60	8,64
212,87	-2,36
213,14	12,64
213,41	-3,36
213,68	5,64
213,95	3,64
214,22	-6,36
214,49	7,64
214,76	7,64
215,03	-10,36
215,30	3,64
215,57	13,64
215,84	-11,36
216,11	-13,36
216,38	-16,36
216,65	22,64
216,91	2,64
217,18	-5,36
217,45	4,64
217,72	2,64
217,99	3,64
218,26	10,64
218,53	-2,36
218,80	-17,36
219,07	7,64
219,34	-12,36
219,61	4,64
219,88	9,64
220,15	-3,36
220,42	-9,36
220,68	11,64
220,95	-4,36
221,22	4,64
221,49	3,64
221,76	-5,36
222,03	-23,36
222,30	-7,36
222,57	-0,36
222,84	-9,36
223,11	-12,36
223,38	21,64
223,65	-21,36
223,92	-5,36
224,18	12,64
224,45	27,64
224,72	1,64
224,99	-7,36
225,26	-9,36
225,53	-6,36
225,80	-15,36
226,07	-3,36
226,34	3,64
226,61	9,64
226,88	-3,36
227,14	-2,36
227,41	-2,36
227,68	6,64
227,95	-2,36
228,22	11,64
228,49	16,64
228,76	9,64
229,03	-6,36
229,30	-6,36
229,57	2,64
229,83	-12,36
230,10	-3,36
230,37	9,64
230,64	8,64
230,91	5,64
231,18	-1,36
231,45	-5,36
231,72	10,64
231,99	11,64
232,25	2,64
232,52	-21,36
232,79	-11,36
233,06	-18,36
233,33	17,64
233,60	-1,36
233,87	5,64
234,14	3,64
234,41	0,64
234,67	2,64
234,94	7,64
235,21	-15,36
235,48	-5,36
235,75	14,64
236,02	29,64
236,29	5,64
236,56	-2,36
236,82	9,64
237,09	-6,36
237,36	5,64
237,63	2,64
237,90	4,64
238,17	0,64
238,44	5,64
238,71	8,64
238,97	1,64
239,24	-16,36
239,51	2,64
239,78	-7,36
240,05	-15,36
240,32	-15,36
240,59	9,64
240,86	10,64
241,12	12,64
241,39	16,64
241,66	8,64
241,93	8,64
242,20	14,64
242,47	-13,36
242,74	1,64
243,00	1,64
243,27	5,64
243,54	11,64
243,81	8,64
244,08	-1,36
244,35	-7,36
244,62	19,64
244,88	13,64
245,15	9,64
245,42	1,64
245,69	-13,36
245,96	2,64
246,23	-2,36
246,50	4,64
246,76	-5,36
247,03	-14,36
247,30	-21,36
247,57	0,64
247,84	-12,36
248,11	4,64
248,37	11,64
248,64	7,64
248,91	9,64
249,18	15,64
249,45	-16,36
249,72	-12,36
249,99	-15,36
250,25	-11,36
250,52	9,64
250,79	8,64
251,06	7,64
251,33	19,64
251,60	9,64
251,86	6,64
252,13	-4,36
252,40	15,64
252,67	-10,36
252,94	-11,36
253,21	17,64
253,47	7,64
253,74	-6,36
254,01	6,64
254,28	1,64
254,55	-8,36
254,81	2,64
255,08	-4,36
255,35	-21,36
255,62	-1,36
255,89	8,64
256,16	-1,36
256,42	9,64
256,69	8,64
256,96	3,64
257,23	5,64
257,50	2,64
257,76	-9,36
258,03	-11,36
258,30	2,64
258,57	14,64
258,84	-1,36
259,11	19,64
259,37	-4,36
259,64	6,64
259,91	7,64
260,18	-6,36
260,45	-4,36
260,71	9,64
260,98	3,64
261,25	2,64
261,52	11,64
261,79	9,64
262,05	7,64
262,32	4,64
262,59	2,64
262,86	7,64
263,13	33,64
263,39	11,64
263,66	-6,36
263,93	15,64
264,20	10,64
264,47	9,64
264,73	-7,36
265,00	12,64
265,27	6,64
265,54	2,64
265,81	1,64
266,07	4,64
266,34	-6,36
266,61	-5,36
266,88	4,64
267,15	6,64
267,41	15,64
267,68	14,64
267,95	14,64
268,22	9,64
268,48	-0,36
268,75	4,64
269,02	3,64
269,29	-7,36
269,56	-1,36
269,82	-2,36
270,09	4,64
270,36	-15,36
270,63	-5,36
270,89	-20,36
271,16	-20,36
271,43	9,64
271,70	22,64
271,97	-4,36
272,23	17,64
272,50	9,64
272,77	8,64
273,04	19,64
273,30	2,64
273,57	1,64
273,84	3,64
274,11	15,64
274,37	-7,36
274,64	14,64
274,91	7,64
275,18	17,64
275,45	-2,36
275,71	9,64
275,98	-4,36
276,25	-0,36
276,52	-0,36
276,78	17,64
277,05	1,64
277,32	-2,36
277,59	-6,36
277,85	1,64
278,12	19,64
278,39	3,64
278,66	-13,36
278,92	9,64
279,19	-2,36
279,46	9,64
279,73	24,64
279,99	9,64
280,26	0,64
280,53	-11,36
280,80	6,64
281,06	-1,36
281,33	10,64
281,60	19,64
281,87	22,64
282,13	-6,36
282,40	3,64
282,67	9,64
282,94	19,64
283,20	-0,36
283,47	20,64
283,74	0,64
284,01	6,64
284,27	16,64
284,54	19,64
284,81	-4,36
285,07	9,64
285,34	-3,36
285,61	-24,36
285,88	-13,36
286,14	-2,36
286,41	3,64
286,68	-18,36
286,95	2,64
287,21	2,64
287,48	-7,36
287,75	2,64
288,02	-1,36
288,28	-6,36
288,55	-21,36
288,82	4,64
289,08	1,64
289,35	-12,36
289,62	17,64
289,89	-4,36
290,15	-6,36
290,42	-32,36
290,69	-1,36
290,95	-3,36
291,22	5,64
291,49	13,64
291,76	4,64
292,02	-7,36
292,29	8,64
292,56	2,64
292,82	30,64
293,09	13,64
293,36	5,64
293,63	7,64
293,89	5,64
294,16	2,64
294,43	1,64
294,69	-1,36
294,96	5,64
295,23	-6,36
295,50	8,64
295,76	17,64
296,03	-6,36
296,30	4,64
296,56	28,64
296,83	8,64
297,10	6,64
297,36	-14,36
297,63	10,64
297,90	18,64
298,16	8,64
298,43	12,64
298,70	-7,36
298,97	-7,36
299,23	0,64
299,50	-12,36
299,77	-12,36
300,03	-2,36
300,30	4,64
300,57	3,64
300,83	6,64
301,10	10,64
301,37	2,64
301,63	1,64
301,90	10,64
302,17	-11,36
302,44	-18,36
302,70	10,64
302,97	-4,36
303,24	1,64
303,50	1,64
303,77	-7,36
304,04	-0,36
304,30	13,64
304,57	25,64
304,84	-6,36
305,10	14,64
305,37	15,64
305,64	2,64
305,90	10,64
306,17	13,64
306,44	8,64
306,70	8,64
306,97	7,64
307,24	-10,36
307,50	11,64
307,77	-3,36
308,04	-5,36
308,30	5,64
308,57	11,64
308,84	10,64
309,10	-8,36
309,37	-1,36
309,64	-4,36
309,90	-3,36
310,17	10,64
310,44	2,64
310,70	-2,36
310,97	-24,36
311,24	5,64
311,50	-0,36
311,77	21,64
312,04	11,64
312,30	9,64
312,57	29,64
312,84	20,64
313,10	16,64
313,37	12,64
313,63	15,64
313,90	6,64
314,17	-6,36
314,43	9,64
314,70	0,64
314,97	17,64
315,23	17,64
315,50	12,64
315,77	0,64
316,03	5,64
316,30	1,64
316,57	0,64
316,83	12,64
317,10	6,64
317,36	6,64
317,63	6,64
317,90	0,64
318,16	3,64
318,43	14,64
318,70	8,64
318,96	16,64
319,23	0,64
319,50	-10,36
319,76	-12,36
320,03	6,64
320,29	3,64
320,56	-5,36
320,83	12,64
321,09	6,64
321,36	-11,36
321,63	-1,36
321,89	-7,36
322,16	3,64
322,42	0,64
322,69	-14,36
322,96	-6,36
323,22	-5,36
323,49	-2,36
323,76	5,64
324,02	12,64
324,29	-12,36
324,55	-17,36
324,82	-5,36
325,09	10,64
325,35	-17,36
325,62	-26,36
325,88	12,64
326,15	-3,36
326,42	5,64
326,68	17,64
326,95	-8,36
327,21	7,64
327,48	14,64
327,75	18,64
328,01	4,64
328,28	5,64
328,55	8,64
328,81	7,64
329,08	6,64
329,34	2,64
329,61	-9,36
329,88	-2,36
330,14	4,64
330,41	15,64
330,67	17,64
330,94	-12,36
331,21	23,64
331,47	1,64
331,74	10,64
332,00	7,64
332,27	1,64
332,53	26,64
332,80	-12,36
333,07	3,64
333,33	-7,36
333,60	2,64
333,86	-6,36
334,13	12,64
334,40	14,64
334,66	15,64
334,93	2,64
335,19	19,64
335,46	7,64
335,73	-1,36
335,99	10,64
336,26	-13,36
336,52	7,64
336,79	11,64
337,05	6,64
337,32	18,64
337,59	28,64
337,85	2,64
338,12	17,64
338,38	12,64
338,65	12,64
338,91	0,64
339,18	-9,36
339,45	11,64
339,71	6,64
339,98	9,64
340,24	6,64
340,51	5,64
340,77	12,64
341,04	6,64
341,31	1,64
341,57	25,64
341,84	18,64
342,10	-33,36
342,37	-3,36
342,63	18,64
342,90	12,64
343,17	-6,36
343,43	17,64
343,70	18,64
343,96	-11,36
344,23	7,64
344,49	-0,36
344,76	11,64
345,02	27,64
345,29	10,64
345,56	30,64
345,82	13,64
346,09	6,64
346,35	12,64
346,62	5,64
346,88	20,64
347,15	4,64
347,41	22,64
347,68	21,64
347,94	-1,36
348,21	13,64
348,48	7,64
348,74	6,64
349,01	-16,36
349,27	-11,36
349,54	6,64
349,80	9,64
350,07	20,64
350,33	4,64
350,60	-7,36
350,86	-7,36
351,13	-6,36
351,39	0,64
351,66	-1,36
351,93	4,64
352,19	-5,36
352,46	-13,36
352,72	-3,36
352,99	8,64
353,25	17,64
353,52	-7,36
353,78	3,64
354,05	-11,36
354,31	-11,36
354,58	3,64
354,84	24,64
355,11	0,64
355,37	-13,36
355,64	0,64
355,90	-4,36
356,17	-1,36
356,43	5,64
356,70	-2,36
356,97	5,64
357,23	9,64
357,50	-0,36
357,76	-16,36
358,03	-0,36
358,29	-7,36
358,56	-11,36
358,82	-3,36
359,09	-13,36
359,35	-8,36
359,62	16,64
359,88	-8,36
360,15	14,64
360,41	-5,36
360,68	-3,36
360,94	5,64
361,21	14,64
361,47	13,64
361,74	2,64
362,00	-7,36
362,27	11,64
362,53	3,64
362,80	24,64
363,06	17,64
363,33	0,64
363,59	43,64
363,86	64,64
364,12	95,64
364,39	101,64
364,65	97,64
364,92	62,64
365,18	34,64
365,45	21,64
365,71	19,64
365,98	11,64
366,24	5,64
366,51	33,64
366,77	8,64
367,04	-5,36
367,30	3,64
367,57	8,64
367,83	20,64
368,10	4,64
368,36	10,64
368,63	27,64
368,89	-2,36
369,15	4,64
369,42	4,64
369,68	22,64
369,95	-6,36
370,21	0,64
370,48	1,64
370,74	22,64
371,01	0,64
371,27	9,64
371,54	22,64
371,80	31,64
372,07	12,64
372,33	23,64
372,60	-1,36
372,86	-1,36
373,13	-14,36
373,39	-8,36
373,66	5,64
373,92	21,64
374,18	19,64
374,45	6,64
374,71	-12,36
374,98	14,64
375,24	7,64
375,51	-2,36
375,77	13,64
376,04	-4,36
376,30	7,64
376,57	-12,36
376,83	2,64
377,10	3,64
377,36	-11,36
377,62	3,64
377,89	7,64
378,15	3,64
378,42	4,64
378,68	12,64
378,95	7,64
379,21	4,64
379,48	16,64
379,74	8,64
380,00	5,64
380,27	26,64
380,53	16,64
380,80	-2,36
381,06	-2,36
381,33	-1,36
381,59	17,64
381,86	25,64
382,12	11,64
382,38	-5,36
382,65	-5,36
382,91	21,64
383,18	9,64
383,44	6,64
383,71	18,64
383,97	23,64
384,24	-4,36
384,50	-1,36
384,76	13,64
385,03	-5,36
385,29	-3,36
385,56	3,64
385,82	18,64
386,09	8,64
386,35	-7,36
386,61	-0,36
386,88	11,64
387,14	-1,36
387,41	7,64
387,67	13,64
387,94	22,64
388,20	3,64
388,46	4,64
388,73	-9,36
388,99	6,64
389,26	4,64
389,52	10,64
389,78	-1,36
390,05	15,64
390,31	16,64
390,58	-0,36
390,84	25,64
391,11	17,64
391,37	22,64
391,63	7,64
391,90	35,64
392,16	24,64
392,43	11,64
392,69	3,64
392,95	-1,36
393,22	9,64
393,48	5,64
393,75	22,64
394,01	0,64
394,27	-3,36
394,54	-5,36
394,80	-2,36
395,07	1,64
395,33	8,64
395,59	15,64
395,86	14,64
396,12	1,64
396,39	19,64
396,65	4,64
396,91	-0,36
397,18	-10,36
397,44	-3,36
397,71	9,64
397,97	9,64
398,23	-4,36
398,50	11,64
398,76	25,64
399,03	7,64
399,29	29,64
399,55	24,64
399,82	18,64
400,08	22,64
400,34	13,64
400,61	13,64
400,87	24,64
401,14	15,64
401,40	50,64
401,66	60,64
401,93	71,64
402,19	77,64
402,46	105,64
402,72	127,64
402,98	193,64
403,25	295,64
403,51	431,64
403,77	512,64
404,04	448,64
404,30	289,64
404,57	190,64
404,83	93,64
405,09	56,64
405,36	30,64
405,62	14,64
405,88	35,64
406,15	36,64
406,41	43,64
406,67	76,64
406,94	59,64
407,20	63,64
407,47	41,64
407,73	38,64
407,99	27,64
408,26	21,64
408,52	42,64
408,78	31,64
409,05	43,64
409,31	34,64
409,57	43,64
409,84	44,64
410,10	49,64
410,37	29,64
410,63	51,64
410,89	57,64
411,16	42,64
411,42	42,64
411,68	35,64
411,95	51,64
412,21	63,64
412,47	67,64
412,74	54,64
413,00	48,64
413,26	76,64
413,53	51,64
413,79	59,64
414,05	63,64
414,32	81,64
414,58	69,64
414,84	75,64
415,11	80,64
415,37	78,64
415,63	92,64
415,90	99,64
416,16	73,64
416,42	79,64
416,69	72,64
416,95	102,64
417,21	94,64
417,48	98,64
417,74	87,64
418,00	97,64
418,27	95,64
418,53	107,64
418,79	134,64
419,06	123,64
419,32	124,64
419,58	114,64
419,85	126,64
420,11	113,64
420,37	131,64
420,64	131,64
420,90	136,64
421,16	138,64
421,43	132,64
421,69	139,64
421,95	151,64
422,22	157,64
422,48	162,64
422,74	152,64
423,01	164,64
423,27	205,64
423,53	180,64
423,79	160,64
424,06	182,64
424,32	212,64
424,58	200,64
424,85	195,64
425,11	187,64
425,37	207,64
425,64	242,64
425,90	233,64
426,16	210,64
426,43	231,64
426,69	270,64
426,95	236,64
427,21	257,64
427,48	285,64
427,74	279,64
428,00	285,64
428,27	296,64
428,53	310,64
428,79	294,64
429,06	303,64
429,32	293,64
429,58	307,64
429,84	314,64
430,11	311,64
430,37	309,64
430,63	335,64
430,90	336,64
431,16	351,64
431,42	355,64
431,68	374,64
431,95	389,64
432,21	449,64
432,47	576,64
432,74	704,64
433,00	808,64
433,26	943,64
433,52	1094,64
433,79	1367,64
434,05	1858,64
434,31	2723,64
434,58	3664,64
434,84	4221,64
435,10	3935,64
435,36	2949,64
435,63	1842,64
435,89	1171,64
436,15	734,64
436,41	584,64
436,68	536,64
436,94	529,64
437,20	495,64
437,47	522,64
437,73	494,64
437,99	515,64
438,25	497,64
438,52	505,64
438,78	511,64
439,04	538,64
439,30	509,64
439,57	562,64
439,83	523,64
440,09	544,64
440,35	542,64
440,62	530,64
440,88	585,64
441,14	539,64
441,41	576,64
441,67	559,64
441,93	563,64
442,19	592,64
442,46	581,64
442,72	580,64
442,98	573,64
443,24	567,64
443,51	574,64
443,77	586,64
444,03	587,64
444,29	606,64
444,56	617,64
444,82	601,64
445,08	605,64
445,34	622,64
445,61	633,64
445,87	633,64
446,13	629,64
446,39	638,64
446,65	602,64
446,92	646,64
447,18	668,64
447,44	652,64
447,70	625,64
447,97	643,64
448,23	655,64
448,49	623,64
448,75	682,64
449,02	661,64
449,28	688,64
449,54	662,64
449,80	685,64
450,07	666,64
450,33	646,64
450,59	684,64
450,85	699,64
451,11	714,64
451,38	715,64
451,64	674,64
451,90	667,64
452,16	721,64
452,43	725,64
452,69	696,64
452,95	718,64
453,21	733,64
453,47	705,64
453,74	732,64
454,00	705,64
454,26	711,64
454,52	687,64
454,79	708,64
455,05	715,64
455,31	717,64
455,57	719,64
455,83	716,64
456,10	747,64
456,36	723,64
456,62	752,64
456,88	733,64
457,14	744,64
457,41	768,64
457,67	742,64
457,93	726,64
458,19	749,64
458,45	742,64
458,72	787,64
458,98	765,64
459,24	740,64
459,50	726,64
459,76	723,64
460,03	757,64
460,29	764,64
460,55	723,64
460,81	786,64
461,07	752,64
461,34	762,64
461,60	759,64
461,86	783,64
462,12	766,64
462,38	741,64
462,65	753,64
462,91	763,64
463,17	750,64
463,43	748,64
463,69	740,64
463,96	748,64
464,22	729,64
464,48	707,64
464,74	748,64
465,00	799,64
465,26	774,64
465,53	766,64
465,79	793,64
466,05	768,64
466,31	756,64
466,57	737,64
466,84	758,64
467,10	745,64
467,36	769,64
467,62	761,64
467,88	766,64
468,14	759,64
468,41	756,64
468,67	751,64
468,93	771,64
469,19	778,64
469,45	801,64
469,71	777,64
469,98	773,64
470,24	783,64
470,50	777,64
470,76	794,64
471,02	790,64
471,28	777,64
471,55	797,64
471,81	782,64
472,07	776,64
472,33	792,64
472,59	814,64
472,85	785,64
473,12	814,64
473,38	806,64
473,64	801,64
473,90	806,64
474,16	814,64
474,42	811,64
474,68	806,64
474,95	836,64
475,21	854,64
475,47	820,64
475,73	814,64
475,99	831,64
476,25	824,64
476,52	816,64
476,78	853,64
477,04	846,64
477,30	863,64
477,56	860,64
477,82	879,64
478,08	852,64
478,35	874,64
478,61	918,64
478,87	914,64
479,13	932,64
479,39	953,64
479,65	978,64
479,91	1001,64
480,17	1012,64
480,44	1051,64
480,70	1072,64
480,96	1134,64
481,22	1192,64
481,48	1219,64
481,74	1285,64
482,00	1376,64
482,27	1472,64
482,53	1520,64
482,79	1638,64
483,05	1736,64
483,31	1836,64
483,57	1941,64
483,83	2046,64
484,09	2179,64
484,36	2272,64
484,62	2423,64
484,88	2533,64
485,14	2634,64
485,40	2685,64
485,66	2695,64
485,92	2718,64
486,18	2737,64
486,44	2701,64
486,71	2618,64
486,97	2536,64
487,23	2476,64
487,49	2411,64
487,75	2371,64
488,01	2312,64
488,27	2270,64
488,53	2205,64
488,79	2138,64
489,06	2103,64
489,32	2100,64
489,58	2080,64
489,84	2052,64
490,10	2044,64
490,36	1987,64
490,62	1995,64
490,88	1970,64
491,14	1932,64
491,40	1899,64
491,67	1816,64
491,93	1792,64
492,19	1761,64
492,45	1742,64
492,71	1670,64
492,97	1634,64
493,23	1640,64
493,49	1593,64
493,75	1617,64
494,01	1568,64
494,28	1570,64
494,54	1515,64
494,80	1512,64
495,06	1449,64
495,32	1458,64
495,58	1431,64
495,84	1450,64
496,10	1389,64
496,36	1391,64
496,62	1374,64
496,88	1323,64
497,14	1336,64
497,41	1298,64
497,67	1287,64
497,93	1252,64
498,19	1237,64
498,45	1193,64
498,71	1164,64
498,97	1200,64
499,23	1148,64
499,49	1146,64
499,75	1119,64
500,01	1143,64
500,27	1131,64
500,53	1120,64
500,80	1140,64
501,06	1138,64
501,32	1090,64
501,58	1069,64
501,84	1085,64
502,10	1103,64
502,36	1093,64
502,62	1091,64
502,88	1106,64
503,14	1115,64
503,40	1149,64
503,66	1124,64
503,92	1144,64
504,18	1136,64
504,44	1151,64
504,70	1164,64
504,97	1155,64
505,23	1216,64
505,49	1208,64
505,75	1217,64
506,01	1196,64
506,27	1247,64
506,53	1252,64
506,79	1254,64
507,05	1235,64
507,31	1296,64
507,57	1310,64
507,83	1285,64
508,09	1344,64
508,35	1354,64
508,61	1368,64
508,87	1381,64
509,13	1411,64
509,39	1379,64
509,65	1415,64
509,91	1431,64
510,17	1412,64
510,43	1419,64
510,70	1426,64
510,96	1417,64
511,22	1439,64
511,48	1455,64
511,74	1437,64
512,00	1433,64
512,26	1462,64
512,52	1458,64
512,78	1442,64
513,04	1447,64
513,30	1452,64
513,56	1473,64
513,82	1469,64
514,08	1454,64
514,34	1434,64
514,60	1407,64
514,86	1416,64
515,12	1418,64
515,38	1386,64
515,64	1382,64
515,90	1373,64
516,16	1370,64
516,42	1342,64
516,68	1337,64
516,94	1329,64
517,20	1337,64
517,46	1295,64
517,72	1346,64
517,98	1309,64
518,24	1284,64
518,50	1302,64
518,76	1286,64
519,02	1275,64
519,28	1248,64
519,54	1221,64
519,80	1235,64
520,06	1212,64
520,32	1214,64
520,58	1204,64
520,84	1184,64
521,10	1176,64
521,36	1179,64
521,62	1161,64
521,88	1134,64
522,14	1114,64
522,40	1151,64
522,66	1110,64
522,92	1077,64
523,18	1081,64
523,44	1111,64
523,70	1096,64
523,96	1072,64
524,22	1080,64
524,48	1020,64
524,74	1038,64
525,00	1021,64
525,26	1018,64
525,52	1016,64
525,78	996,64
526,04	993,64
526,30	984,64
526,56	966,64
526,82	990,64
527,08	987,64
527,34	957,64
527,60	930,64
527,86	935,64
528,12	908,64
528,38	920,64
528,64	931,64
528,90	896,64
529,16	900,64
529,42	904,64
529,68	873,64
529,94	910,64
530,20	902,64
530,46	919,64
530,72	954,64
530,98	940,64
531,24	970,64
531,50	972,64
531,76	1021,64
532,02	1061,64
532,28	1074,64
532,54	1071,64
532,80	1029,64
533,06	1042,64
533,32	1035,64
533,58	1034,64
533,84	1075,64
534,10	1086,64
534,35	1147,64
534,61	1212,64
534,87	1278,64
535,13	1405,64
535,39	1553,64
535,65	1695,64
535,91	1918,64
536,17	2088,64
536,43	2284,64
536,69	2494,64
536,95	2699,64
537,21	2926,64
537,47	3208,64
537,73	3547,64
537,99	4000,64
538,25	4701,64
538,51	5558,64
538,77	6677,64
539,03	7748,64
539,29	9125,64
539,55	10539,64
539,80	11994,64
540,06	13543,64
540,32	14616,64
540,58	14990,64
540,84	14698,64
541,10	14015,64
541,36	13043,64
541,62	12118,64
541,88	11529,64
542,14	11157,64
542,40	11190,64
542,66	11368,64
542,92	11787,64
543,18	12447,64
543,44	12922,64
543,70	13525,64
543,95	14494,64
544,21	15187,64
544,47	15172,64
544,73	15171,64
544,99	15166,64
545,25	15140,64
545,51	15160,64
545,77	15173,64
546,03	14857,64
546,29	12036,64
546,55	9227,64
546,81	8327,64
547,07	7830,64
547,32	7329,64
547,58	6829,64
547,84	6352,64
548,10	5898,64
548,36	5463,64
548,62	5163,64
548,88	4811,64
549,14	4447,64
549,40	4059,64
549,66	3819,64
549,92	3522,64
550,18	3254,64
550,43	2994,64
550,69	2810,64
550,95	2622,64
551,21	2410,64
551,47	2251,64
551,73	2124,64
551,99	1967,64
552,25	1822,64
552,51	1674,64
552,77	1555,64
553,03	1440,64
553,28	1331,64
553,54	1224,64
553,80	1135,64
554,06	1068,64
554,32	996,64
554,58	938,64
554,84	882,64
555,10	840,64
555,36	806,64
555,61	811,64
555,87	747,64
556,13	744,64
556,39	713,64
556,65	643,64
556,91	630,64
557,17	608,64
557,43	581,64
557,69	564,64
557,94	534,64
558,20	526,64
558,46	551,64
558,72	540,64
558,98	516,64
559,24	508,64
559,50	493,64
559,76	461,64
560,02	439,64
560,27	454,64
560,53	435,64
560,79	413,64
561,05	437,64
561,31	387,64
561,57	404,64
561,83	403,64
562,09	404,64
562,34	387,64
562,60	360,64
562,86	359,64
563,12	352,64
563,38	342,64
563,64	358,64
563,90	343,64
564,15	323,64
564,41	302,64
564,67	281,64
564,93	313,64
565,19	301,64
565,45	314,64
565,71	285,64
565,97	296,64
566,22	300,64
566,48	281,64
566,74	303,64
567,00	286,64
567,26	293,64
567,52	304,64
567,78	286,64
568,03	256,64
568,29	257,64
568,55	255,64
568,81	240,64
569,07	236,64
569,33	235,64
569,58	241,64
569,84	231,64
570,10	243,64
570,36	230,64
570,62	225,64
570,88	226,64
571,14	220,64
571,39	203,64
571,65	221,64
571,91	224,64
572,17	194,64
572,43	220,64
572,69	242,64
572,94	264,64
573,20	273,64
573,46	284,64
573,72	355,64
573,98	489,64
574,24	626,64
574,49	783,64
574,75	1005,64
575,01	1418,64
575,27	1960,64
575,53	2497,64
575,79	2666,64
576,04	2381,64
576,30	1962,64
576,56	1584,64
576,82	1514,64
577,08	1668,64
577,33	2118,64
577,59	2668,64
577,85	2853,64
578,11	2615,64
578,37	2276,64
578,63	2000,64
578,88	1961,64
579,14	1975,64
579,40	1956,64
579,66	1908,64
579,92	1828,64
580,17	1895,64
580,43	2023,64
580,69	2235,64
580,95	2445,64
581,21	2653,64
581,47	2834,64
581,72	2926,64
581,98	3005,64
582,24	3065,64
582,50	3073,64
582,76	2960,64
583,01	2942,64
583,27	2860,64
583,53	2760,64
583,79	2737,64
584,05	2656,64
584,30	2636,64
584,56	2650,64
584,82	2728,64
585,08	2855,64
585,34	3083,64
585,59	3401,64
585,85	3755,64
586,11	3840,64
586,37	3589,64
586,63	3111,64
586,88	2636,64
587,14	2276,64
587,40	1947,64
587,66	1777,64
587,91	1690,64
588,17	1605,64
588,43	1552,64
588,69	1517,64
588,95	1554,64
589,20	1601,64
589,46	1702,64
589,72	1756,64
589,98	1856,64
590,24	2003,64
590,49	2124,64
590,75	2286,64
591,01	2508,64
591,27	2692,64
591,52	2945,64
591,78	3003,64
592,04	2924,64
592,30	2617,64
592,55	2282,64
592,81	1950,64
593,07	1629,64
593,33	1436,64
593,59	1243,64
593,84	1180,64
594,10	1098,64
594,36	1061,64
594,62	1029,64
594,87	1040,64
595,13	978,64
595,39	995,64
595,65	1028,64
595,90	1013,64
596,16	1070,64
596,42	1128,64
596,68	1225,64
596,93	1354,64
597,19	1431,64
597,45	1629,64
597,71	1809,64
597,97	1897,64
598,22	1900,64
598,48	1821,64
598,74	1714,64
599,00	1571,64
599,25	1370,64
599,51	1193,64
599,77	1060,64
600,03	957,64
600,28	877,64
600,54	788,64
600,80	716,64
601,05	686,64
601,31	656,64
601,57	620,64
601,83	658,64
602,08	642,64
602,34	660,64
602,60	682,64
602,86	692,64
603,11	734,64
603,37	756,64
603,63	760,64
603,89	772,64
604,14	805,64
604,40	850,64
604,66	901,64
604,92	926,64
605,17	999,64
605,43	1071,64
605,69	1124,64
605,94	1276,64
606,20	1415,64
606,46	1537,64
606,72	1784,64
606,97	2045,64
607,23	2418,64
607,49	2904,64
607,75	3598,64
608,00	4694,64
608,26	6235,64
608,52	8278,64
608,77	10791,64
609,03	13540,64
609,29	15166,64
609,55	15173,64
609,80	15165,64
610,06	15167,64
610,32	15174,64
610,57	15171,64
610,83	15172,64
611,09	15174,64
611,35	15161,64
611,60	15161,64
611,86	14588,64
612,12	10335,64
612,37	8003,64
612,63	7366,64
612,89	7077,64
613,15	6709,64
613,40	6342,64
613,66	5776,64
613,92	5091,64
614,17	4508,64
614,43	3920,64
614,69	3381,64
614,94	3055,64
615,20	2745,64
615,46	2471,64
615,72	2251,64
615,97	2098,64
616,23	1985,64
616,49	1918,64
616,74	1847,64
617,00	1824,64
617,26	1782,64
617,51	1803,64
617,77	1765,64
618,03	1805,64
618,28	1886,64
618,54	1902,64
618,80	2016,64
619,05	2055,64
619,31	2152,64
619,57	2167,64
619,83	2175,64
620,08	2158,64
620,34	2148,64
620,60	2129,64
620,85	2171,64
621,11	2168,64
621,37	2241,64
621,62	2266,64
621,88	2387,64
622,14	2408,64
622,39	2481,64
622,65	2504,64
622,91	2518,64
623,16	2488,64
623,42	2493,64
623,68	2478,64
623,93	2545,64
624,19	2534,64
624,45	2484,64
624,70	2444,64
624,96	2349,64
625,22	2363,64
625,47	2258,64
625,73	2185,64
625,99	2099,64
626,24	2048,64
626,50	2002,64
626,76	1917,64
627,01	1922,64
627,27	1879,64
627,53	1905,64
627,78	1986,64
628,04	2055,64
628,30	2213,64
628,55	2449,64
628,81	2720,64
629,07	3039,64
629,32	3322,64
629,58	3467,64
629,83	3391,64
630,09	3005,64
630,35	2532,64
630,60	1996,64
630,86	1489,64
631,12	1151,64
631,37	935,64
631,63	768,64
631,89	647,64
632,14	582,64
632,40	538,64
632,66	528,64
632,91	482,64
633,17	475,64
633,42	459,64
633,68	440,64
633,94	439,64
634,19	397,64
634,45	388,64
634,71	388,64
634,96	380,64
635,22	371,64
635,48	367,64
635,73	336,64
635,99	324,64
636,24	332,64
636,50	355,64
636,76	330,64
637,01	318,64
637,27	294,64
637,53	301,64
637,78	301,64
638,04	335,64
638,29	315,64
638,55	298,64
638,81	289,64
639,06	307,64
639,32	308,64
639,57	301,64
639,83	301,64
640,09	308,64
640,34	312,64
640,60	296,64
640,86	312,64
641,11	309,64
641,37	319,64
641,62	310,64
641,88	311,64
642,14	321,64
642,39	335,64
642,65	335,64
642,90	339,64
643,16	342,64
643,42	332,64
643,67	348,64
643,93	343,64
644,18	339,64
644,44	369,64
644,70	361,64
644,95	340,64
645,21	332,64
645,46	322,64
645,72	338,64
645,98	362,64
646,23	345,64
646,49	366,64
646,74	387,64
647,00	395,64
647,26	416,64
647,51	471,64
647,77	562,64
648,02	638,64
648,28	731,64
648,54	847,64
648,79	982,64
649,05	1088,64
649,30	1092,64
649,56	997,64
649,81	857,64
650,07	749,64
650,33	644,64
650,58	587,64
650,84	560,64
651,09	538,64
651,35	567,64
651,60	579,64
651,86	578,64
652,12	568,64
652,37	541,64
652,63	522,64
652,88	472,64
653,14	452,64
653,39	428,64
653,65	413,64
653,91	391,64
654,16	409,64
654,42	374,64
654,67	382,64
654,93	391,64
655,18	392,64
655,44	401,64
655,70	404,64
655,95	419,64
656,21	411,64
656,46	427,64
656,72	395,64
656,97	365,64
657,23	327,64
657,49	305,64
657,74	283,64
658,00	282,64
658,25	257,64
658,51	254,64
658,76	278,64
659,02	287,64
659,27	275,64
659,53	301,64
659,78	359,64
660,04	373,64
660,30	473,64
660,55	558,64
660,81	632,64
661,06	683,64
661,32	664,64
661,57	601,64
661,83	533,64
662,08	456,64
662,34	401,64
662,59	358,64
662,85	342,64
663,11	306,64
663,36	298,64
663,62	264,64
663,87	269,64
664,13	289,64
664,38	262,64
664,64	265,64
664,89	278,64
665,15	267,64
665,40	277,64
665,66	280,64
665,91	266,64
666,17	264,64
666,42	281,64
666,68	265,64
666,93	263,64
667,19	271,64
667,45	260,64
667,70	267,64
667,96	240,64
668,21	240,64
668,47	216,64
668,72	247,64
668,98	229,64
669,23	234,64
669,49	227,64
669,74	224,64
670,00	243,64
670,25	237,64
670,51	205,64
670,76	246,64
671,02	230,64
671,27	233,64
671,53	225,64
671,78	217,64
672,04	193,64
672,29	213,64
672,55	196,64
672,80	187,64
673,06	198,64
673,31	200,64
673,57	182,64
673,82	184,64
674,08	208,64
674,33	181,64
674,59	198,64
674,84	191,64
675,10	167,64
675,35	188,64
675,61	171,64
675,86	172,64
676,12	187,64
676,37	189,64
676,63	203,64
676,88	198,64
677,14	204,64
677,39	207,64
677,65	218,64
677,90	218,64
678,16	266,64
678,41	217,64
678,67	260,64
678,92	269,64
679,18	275,64
679,43	258,64
679,69	261,64
679,94	257,64
680,20	222,64
680,45	228,64
680,71	234,64
680,96	205,64
681,21	189,64
681,47	203,64
681,72	207,64
681,98	228,64
682,23	212,64
682,49	210,64
682,74	211,64
683,00	235,64
683,25	219,64
683,51	238,64
683,76	253,64
684,02	265,64
684,27	271,64
684,53	306,64
684,78	367,64
685,04	390,64
685,29	453,64
685,54	512,64
685,80	548,64
686,05	578,64
686,31	565,64
686,56	550,64
686,82	482,64
687,07	417,64
687,33	360,64
687,58	277,64
687,84	238,64
688,09	201,64
688,34	189,64
688,60	164,64
688,85	149,64
689,11	171,64
689,36	168,64
689,62	146,64
689,87	127,64
690,13	108,64
690,38	113,64
690,64	128,64
690,89	159,64
691,14	206,64
691,40	266,64
691,65	324,64
691,91	371,64
692,16	412,64
692,42	427,64
692,67	357,64
692,92	281,64
693,18	219,64
693,43	199,64
693,69	183,64
693,94	244,64
694,20	308,64
694,45	386,64
694,71	506,64
694,96	582,64
695,21	605,64
695,47	523,64
695,72	399,64
695,98	237,64
696,23	132,64
696,48	76,64
696,74	67,64
696,99	66,64
697,25	63,64
697,50	63,64
697,76	60,64
698,01	60,64
698,26	52,64
698,52	78,64
698,77	90,64
699,03	83,64
699,28	63,64
699,54	80,64
699,79	94,64
700,04	91,64
700,30	80,64
700,55	104,64
700,81	105,64
701,06	100,64
701,31	119,64
701,57	129,64
701,82	161,64
702,08	193,64
702,33	201,64
702,58	211,64
702,84	239,64
703,09	251,64
703,35	313,64
703,60	370,64
703,85	478,64
704,11	622,64
704,36	797,64
704,62	998,64
704,87	1204,64
705,12	1345,64
705,38	1427,64
705,63	1437,64
705,89	1306,64
706,14	1122,64
706,39	1031,64
706,65	976,64
706,90	1021,64
707,16	1101,64
707,41	1186,64
707,66	1222,64
707,92	1117,64
708,17	921,64
708,42	669,64
708,68	497,64
708,93	416,64
709,19	408,64
709,44	430,64
709,69	536,64
709,95	645,64
710,20	793,64
710,46	903,64
710,71	1018,64
710,96	1005,64
711,22	877,64
711,47	751,64
711,72	629,64
711,98	412,64
712,23	298,64
712,48	218,64
712,74	188,64
712,99	166,64
713,25	157,64
713,50	119,64
713,75	113,64
714,01	77,64
714,26	74,64
714,51	66,64
714,77	53,64
715,02	44,64
715,28	67,64
715,53	47,64
715,78	34,64
716,04	33,64
716,29	44,64
716,54	46,64
716,80	18,64
717,05	27,64
717,30	38,64
717,56	53,64
717,81	42,64
718,06	40,64
718,32	58,64
718,57	37,64
718,82	32,64
719,08	42,64
719,33	41,64
719,58	43,64
719,84	55,64
720,09	41,64
720,35	15,64
720,60	38,64
720,85	26,64
721,11	37,64
721,36	10,64
721,61	27,64
721,87	35,64
722,12	25,64
722,37	36,64
722,63	42,64
722,88	45,64
723,13	52,64
723,39	16,64
723,64	43,64
723,89	30,64
724,15	45,64
724,40	31,64
724,65	62,64
724,91	91,64
725,16	115,64
725,41	139,64
725,67	142,64
725,92	158,64
726,17	155,64
726,42	99,64
726,68	91,64
726,93	41,64
727,18	47,64
727,44	44,64
727,69	36,64
727,94	22,64
728,20	27,64
728,45	20,64
728,70	19,64
728,96	28,64
729,21	21,64
729,46	27,64
729,72	49,64
729,97	27,64
730,22	17,64
730,48	48,64
730,73	32,64
730,98	10,64
731,23	8,64
731,49	28,64
731,74	18,64
731,99	14,64
732,25	29,64
732,50	34,64
732,75	33,64
733,01	34,64
733,26	23,64
733,51	48,64
733,76	11,64
734,02	43,64
734,27	40,64
734,52	29,64
734,78	26,64
735,03	47,64
735,28	72,64
735,54	110,64
735,79	220,64
736,04	368,64
736,29	473,64
736,55	583,64
736,80	644,64
737,05	653,64
737,31	533,64
737,56	411,64
737,81	251,64
738,06	132,64
738,32	57,64
738,57	31,64
738,82	43,64
739,07	33,64
739,33	27,64
739,58	44,64
739,83	53,64
740,09	38,64
740,34	50,64
740,59	58,64
740,84	58,64
741,10	49,64
741,35	49,64
741,60	63,64
741,86	48,64
742,11	61,64
742,36	55,64
742,61	27,64
742,87	22,64
743,12	18,64
743,37	36,64
743,62	23,64
743,88	7,64
744,13	39,64
744,38	48,64
744,63	40,64
744,89	38,64
745,14	42,64
745,39	36,64
745,64	61,64
745,90	38,64
746,15	26,64
746,40	12,64
746,65	18,64
746,91	45,64
747,16	52,64
747,41	90,64
747,66	164,64
747,92	362,64
748,17	538,64
748,42	690,64
748,67	860,64
748,93	968,64
749,18	1053,64
749,43	1070,64
749,68	978,64
749,94	816,64
750,19	669,64
750,44	526,64
750,69	352,64
750,95	213,64
751,20	104,64
751,45	79,64
751,70	39,64
751,96	42,64
752,21	6,64
752,46	21,64
752,71	37,64
752,96	4,64
753,22	16,64
753,47	1,64
753,72	29,64
753,97	10,64
754,23	8,64
754,48	8,64
754,73	17,64
754,98	32,64
755,24	19,64
755,49	20,64
755,74	30,64
755,99	23,64
756,24	13,64
756,50	36,64
756,75	6,64
757,00	12,64
757,25	39,64
757,50	21,64
757,76	15,64
758,01	11,64
758,26	13,64
758,51	26,64
758,77	35,64
759,02	42,64
759,27	39,64
759,52	24,64
759,77	46,64
760,03	70,64
760,28	101,64
760,53	208,64
760,78	450,64
761,03	881,64
761,29	1451,64
761,54	1846,64
761,79	2047,64
762,04	2032,64
762,29	1877,64
762,55	1417,64
762,80	961,64
763,05	502,64
763,30	261,64
763,55	117,64
763,81	61,64
764,06	54,64
764,31	23,64
764,56	44,64
764,81	23,64
765,07	39,64
765,32	30,64
765,57	20,64
765,82	28,64
766,07	6,64
766,32	29,64
766,58	12,64
766,83	32,64
767,08	21,64
767,33	29,64
767,58	7,64
767,84	7,64
768,09	20,64
768,34	11,64
768,59	9,64
768,84	30,64
769,09	50,64
769,35	62,64
769,60	150,64
769,85	323,64
770,10	549,64
770,35	736,64
770,60	816,64
770,86	855,64
771,11	797,64
771,36	641,64
771,61	480,64
771,86	274,64
772,11	146,64
772,37	73,64
772,62	49,64
772,87	28,64
773,12	28,64
773,37	26,64
773,62	21,64
773,88	25,64
774,13	23,64
774,38	11,64
774,63	9,64
774,88	20,64
775,13	16,64
775,38	11,64
775,64	20,64
775,89	3,64
776,14	21,64
776,39	16,64
776,64	12,64
776,89	20,64
777,15	6,64
777,40	-3,36
777,65	7,64
777,90	5,64
778,15	-6,36
778,40	19,64
778,65	19,64
778,91	31,64
779,16	8,64
779,41	30,64
779,66	-2,36
779,91	9,64
780,16	5,64
780,41	17,64
780,66	12,64
780,92	18,64
781,17	21,64
781,42	17,64
781,67	11,64
781,92	-7,36
782,17	4,64
782,42	8,64
782,68	-2,36
782,93	-6,36
783,18	-2,36
783,43	1,64
783,68	-6,36
783,93	8,64
784,18	-3,36
784,43	12,64
784,69	10,64
784,94	-0,36
785,19	5,64
785,44	10,64
785,69	-3,36
785,94	-5,36
786,19	-6,36
786,44	1,64
786,69	21,64
786,95	-2,36
787,20	11,64
787,45	-0,36
787,70	7,64
787,95	12,64
788,20	5,64
788,45	6,64
788,70	5,64
788,95	12,64
789,21	5,64
789,46	8,64
789,71	10,64
789,96	15,64
790,21	31,64
790,46	24,64
790,71	5,64
790,96	17,64
791,21	38,64
791,46	47,64
791,72	38,64
791,97	91,64
792,22	190,64
792,47	353,64
792,72	540,64
792,97	627,64
793,22	626,64
793,47	539,64
793,72	460,64
793,97	334,64
794,22	222,64
794,47	125,64
794,73	68,64
794,98	23,64
795,23	27,64
795,48	55,64
795,73	33,64
795,98	37,64
796,23	20,64
796,48	37,64
796,73	20,64
796,98	19,64
797,23	37,64
797,48	52,64
797,74	68,64
797,99	132,64
798,24	240,64
798,49	395,64
798,74	533,64
798,99	681,64
799,24	875,64
799,49	971,64
799,74	988,64
799,99	833,64
800,24	672,64
800,49	472,64
800,74	368,64
800,99	221,64
801,24	122,64
801,50	73,64
801,75	37,64
802,00	36,64
802,25	32,64
802,50	22,64
802,75	33,64
803,00	28,64
803,25	12,64
803,50	29,64
803,75	42,64
804,00	6,64
804,25	7,64
804,50	10,64
804,75	37,64
805,00	26,64
805,25	28,64
805,50	8,64
805,75	16,64
806,00	26,64
806,26	28,64
806,51	14,64
806,76	58,64
807,01	57,64
807,26	77,64
807,51	122,64
807,76	252,64
808,01	510,64
808,26	734,64
808,51	919,64
808,76	1085,64
809,01	1390,64
809,26	1973,64
809,51	2382,64
809,76	2460,64
810,01	2196,64
810,26	1773,64
810,51	1362,64
810,76	998,64
811,01	622,64
811,26	336,64
811,51	184,64
811,76	109,64
812,01	68,64
812,26	52,64
812,51	42,64
812,76	35,64
813,01	29,64
813,26	8,64
813,51	41,64
813,76	21,64
814,01	30,64
814,26	36,64
814,51	17,64
814,76	9,64
815,02	5,64
815,27	1,64
815,52	27,64
815,77	30,64
816,02	14,64
816,27	25,64
816,52	20,64
816,77	3,64
817,02	17,64
817,27	15,64
817,52	13,64
817,77	11,64
818,02	6,64
818,27	4,64
818,52	23,64
818,77	21,64
819,02	19,64
819,27	27,64
819,52	43,64
819,77	26,64
820,02	6,64
820,27	8,64
820,52	7,64
820,77	14,64
821,02	2,64
821,27	1,64
821,52	21,64
821,77	24,64
822,02	23,64
822,26	2,64
822,51	9,64
822,76	-5,36
823,01	17,64
823,26	35,64
823,51	33,64
823,76	71,64
824,01	198,64
824,26	327,64
824,51	432,64
824,76	465,64
825,01	391,64
825,26	304,64
825,51	243,64
825,76	185,64
826,01	115,64
826,26	74,64
826,51	51,64
826,76	36,64
827,01	18,64
827,26	14,64
827,51	16,64
827,76	19,64
828,01	29,64
828,26	11,64
828,51	-0,36
828,76	10,64
829,01	20,64
829,26	18,64
829,51	-8,36
829,76	19,64
830,01	20,64
830,26	7,64
830,51	-10,36
830,76	0,64
831,00	-4,36
831,25	0,64
831,50	-0,36
831,75	-0,36
832,00	-0,36
832,25	2,64
832,50	0,64
832,75	18,64
833,00	15,64
833,25	29,64
833,50	16,64
833,75	-3,36
834,00	-1,36
834,25	24,64
834,50	12,64
834,75	19,64
835,00	25,64
835,25	-2,36
835,50	-9,36
835,74	29,64
835,99	3,64
836,24	24,64
836,49	19,64
836,74	18,64
836,99	19,64
837,24	17,64
837,49	22,64
837,74	27,64
837,99	71,64
838,24	166,64
838,49	371,64
838,74	577,64
838,99	669,64
839,24	644,64
839,48	580,64
839,73	529,64
839,98	631,64
840,23	829,64
840,48	981,64
840,73	1016,64
840,98	906,64
841,23	676,64
841,48	519,64
841,73	395,64
841,98	252,64
842,23	166,64
842,48	68,64
842,72	60,64
842,97	29,64
843,22	20,64
843,47	19,64
843,72	16,64
843,97	28,64
844,22	27,64
844,47	-4,36
844,72	0,64
844,97	12,64
845,22	9,64
845,46	28,64
845,71	4,64
845,96	19,64
846,21	9,64
846,46	12,64
846,71	25,64
846,96	12,64
847,21	7,64
847,46	6,64
847,71	28,64
847,95	28,64
848,20	7,64
848,45	37,64
848,70	25,64
848,95	27,64
849,20	24,64
849,45	72,64
849,70	127,64
849,95	206,64
850,19	276,64
850,44	303,64
850,69	248,64
850,94	184,64
851,19	151,64
851,44	134,64
851,69	63,64
851,94	72,64
852,19	45,64
852,43	18,64
852,68	22,64
852,93	8,64
853,18	21,64
853,43	15,64
853,68	4,64
853,93	4,64
854,18	10,64
854,42	7,64
854,67	8,64
854,92	-8,36
855,17	10,64
855,42	15,64
855,67	1,64
855,92	20,64
856,16	4,64
856,41	11,64
856,66	-2,36
856,91	-21,36
857,16	-12,36
857,41	-1,36
857,66	15,64
857,91	-1,36
858,15	1,64
858,40	9,64
858,65	0,64
858,90	14,64
859,15	15,64
859,40	1,64
859,65	7,64
859,89	38,64
860,14	8,64
860,39	-0,36
860,64	7,64
860,89	13,64
861,14	7,64
861,38	14,64
861,63	2,64
861,88	-6,36
862,13	-6,36
862,38	16,64
862,63	2,64
862,88	0,64
863,12	-0,36
863,37	2,64
863,62	10,64
863,87	1,64
864,12	17,64
864,37	43,64
864,61	45,64
864,86	58,64
865,11	59,64
865,36	38,64
865,61	42,64
865,86	40,64
866,10	21,64
866,35	14,64
866,60	18,64
866,85	3,64
867,10	10,64
867,35	-1,36
867,59	15,64
867,84	21,64
868,09	9,64
868,34	13,64
868,59	15,64
868,83	-1,36
869,08	3,64
869,33	19,64
869,58	-3,36
869,83	-11,36
870,08	20,64
870,32	-4,36
870,57	-3,36
870,82	0,64
871,07	-0,36
871,32	-4,36
871,56	6,64
871,81	0,64
872,06	5,64
872,31	14,64
872,56	-7,36
872,81	2,64
873,05	-1,36
873,30	-4,36
873,55	-1,36
873,80	13,64
874,05	19,64
874,29	11,64
874,54	17,64
874,79	5,64
875,04	11,64
875,29	-0,36
875,53	-16,36
875,78	0,64
876,03	4,64
876,28	13,64
876,52	12,64
876,77	-5,36
877,02	-9,36
877,27	2,64
877,52	3,64
877,76	10,64
878,01	-5,36
878,26	-1,36
878,51	7,64
878,76	13,64
879,00	-2,36
879,25	1,64
879,50	13,64
879,75	-7,36
880,00	-8,36
880,24	-2,36
880,49	5,64
880,74	2,64
880,99	-11,36
881,23	5,64
881,48	0,64
881,73	-9,36
881,98	9,64
882,22	0,64
882,47	15,64
882,72	5,64
882,97	-0,36
883,22	30,64
883,46	11,64
883,71	3,64
883,96	-10,36
884,21	-16,36
884,45	12,64
884,70	2,64
884,95	-20,36
885,20	7,64
885,44	8,64
885,69	-7,36
885,94	0,64
886,19	-2,36
886,43	-23,36
886,68	15,64
886,93	3,64
887,18	-1,36
887,42	10,64
887,67	3,64
887,92	2,64
888,17	4,64
888,42	-1,36
888,66	-2,36
888,91	-8,36
889,16	-5,36
889,40	13,64
889,65	9,64
889,90	11,64
890,15	3,64
890,39	-7,36
890,64	2,64
890,89	0,64
891,14	9,64
891,38	16,64
891,63	13,64
891,88	22,64
892,13	8,64
892,37	-2,36
892,62	14,64
892,87	18,64
893,12	24,64
893,36	-2,36
893,61	-7,36
893,86	0,64
894,11	1,64
894,35	10,64
894,60	10,64
894,85	5,64
895,09	9,64
895,34	20,64
895,59	17,64
895,84	12,64
896,08	8,64
896,33	0,64
896,58	2,64
896,82	0,64
897,07	2,64
897,32	-12,36
897,57	13,64
897,81	-3,36
898,06	14,64
898,31	-1,36
898,55	-6,36
898,80	-5,36
899,05	0,64
899,30	6,64
899,54	11,64
899,79	1,64
900,04	7,64
900,28	24,64
900,53	8,64
900,78	8,64
901,03	27,64
901,27	5,64
901,52	-0,36
901,77	13,64
902,01	-2,36
902,26	-9,36
902,51	15,64
902,75	4,64
903,00	-4,36
903,25	-11,36
903,50	13,64
903,74	-13,36
903,99	4,64
904,24	16,64
904,48	23,64
904,73	-9,36
904,98	22,64
905,22	26,64
905,47	23,64
905,72	1,64
905,96	19,64
906,21	-4,36
906,46	-2,36
906,70	10,64
906,95	-6,36
907,20	25,64
907,45	-9,36
907,69	10,64
907,94	0,64
908,19	19,64
908,43	16,64
908,68	18,64
908,93	23,64
909,17	18,64
909,42	53,64
909,67	123,64
909,91	265,64
910,16	452,64
910,41	603,64
910,65	618,64
910,90	538,64
911,15	409,64
911,39	310,64
911,64	229,64
911,89	178,64
912,13	119,64
912,38	78,64
912,63	64,64
912,87	55,64
913,12	27,64
913,37	19,64
913,61	25,64
913,86	2,64
914,11	23,64
914,35	13,64
914,60	14,64
914,85	18,64
915,09	8,64
915,34	0,64
915,58	-1,36
915,83	4,64
916,08	11,64
916,32	16,64
916,57	13,64
916,82	-5,36
917,06	16,64
917,31	2,64
917,56	42,64
917,80	9,64
918,05	15,64
918,30	4,64
918,54	-12,36
918,79	3,64
919,04	8,64
919,28	-5,36
919,53	17,64
919,77	36,64
920,02	34,64
920,27	99,64
920,51	126,64
920,76	126,64
921,01	124,64
921,25	93,64
921,50	61,64
921,74	35,64
921,99	34,64
922,24	28,64
922,48	24,64
922,73	23,64
922,98	15,64
923,22	14,64
923,47	5,64
923,71	8,64
923,96	10,64
924,21	12,64
924,45	12,64
924,70	7,64
924,95	20,64
925,19	16,64
925,44	14,64
925,68	17,64
925,93	19,64
926,18	3,64
926,42	10,64
926,67	-5,36
926,91	-9,36
927,16	-2,36
927,41	-2,36
927,65	-10,36
927,90	-24,36
928,14	-2,36
928,39	9,64
928,64	11,64
928,88	-0,36
929,13	9,64
929,37	-7,36
929,62	18,64
929,87	16,64
930,11	4,64
930,36	-20,36
930,60	5,64
930,85	3,64
931,10	24,64
931,34	4,64
931,59	-7,36
931,83	-3,36
932,08	10,64
932,33	14,64
932,57	7,64
932,82	20,64
933,06	3,64
933,31	7,64
933,56	-9,36
933,80	4,64
934,05	14,64
934,29	12,64
934,54	4,64
934,78	6,64
935,03	3,64
935,28	7,64
935,52	-7,36
935,77	13,64
936,01	6,64
936,26	-15,36
936,51	8,64
936,75	-0,36
937,00	6,64
937,24	17,64
937,49	-15,36
937,73	-19,36
937,98	9,64
938,22	4,64
938,47	4,64
938,72	22,64
938,96	11,64
939,21	9,64
939,45	-1,36
939,70	6,64
939,94	12,64
940,19	2,64
940,44	21,64
940,68	1,64
940,93	-7,36
941,17	-7,36
941,42	-5,36
941,66	-5,36
941,91	9,64
942,15	13,64
942,40	17,64
942,65	-15,36
942,89	7,64
943,14	-5,36
943,38	-8,36
943,63	14,64
943,87	10,64
944,12	16,64
944,36	2,64
944,61	-2,36
944,85	-0,36
945,10	-20,36
945,35	0,64
945,59	-18,36
945,84	-19,36
946,08	-1,36
946,33	4,64
946,57	8,64
946,82	23,64
947,06	10,64
947,31	14,64
947,55	3,64
947,80	-12,36
948,04	19,64
948,29	-2,36
948,54	9,64
948,78	17,64
949,03	26,64
949,27	14,64
949,52	-21,36
949,76	-16,36
950,01	-5,36
950,25	21,64
950,50	-2,36
950,74	14,64
950,99	13,64
951,23	20,64
951,48	20,64
951,72	25,64
951,97	9,64
952,21	11,64
952,46	11,64
952,70	18,64
952,95	17,64
953,19	-0,36
953,44	-8,36
953,68	11,64
953,93	22,64
954,17	13,64
954,42	12,64
954,66	23,64
954,91	0,64
955,15	15,64
955,40	8,64
955,64	-3,36
955,89	9,64
956,13	-0,36
956,38	-21,36
956,62	6,64
956,87	6,64
957,11	13,64
957,36	2,64
957,60	-0,36
957,85	17,64
958,09	-12,36
958,34	15,64
958,58	1,64
958,83	17,64
959,07	3,64
959,32	-18,36
959,56	12,64
959,81	15,64
960,05	4,64
960,30	13,64
960,54	8,64
960,79	-4,36
961,03	-10,36
961,28	0,64
961,52	7,64
961,77	9,64
962,01	5,64
962,26	-1,36
962,50	-3,36
962,75	45,64
962,99	4,64
963,24	8,64
963,48	42,64
963,73	50,64
963,97	76,64
964,21	73,64
964,46	77,64
964,70	64,64
964,95	53,64
965,19	30,64
965,44	53,64
965,68	20,64
965,93	21,64
966,17	25,64
966,42	5,64
966,66	-2,36
966,91	3,64
967,15	13,64
967,40	10,64
967,64	-8,36
967,88	2,64
968,13	-8,36
968,37	-24,36
968,62	-9,36
968,86	6,64
969,11	13,64
969,35	14,64
969,60	-4,36
969,84	17,64
970,09	20,64
970,33	29,64
970,57	24,64
970,82	8,64
971,06	-1,36
971,31	11,64
971,55	5,64
971,80	15,64
972,04	-0,36
972,29	15,64
972,53	16,64
972,77	-3,36
973,02	9,64
973,26	19,64
973,51	15,64
973,75	9,64
974,00	-6,36
974,24	0,64
974,48	-4,36
974,73	-20,36
974,97	0,64
975,22	4,64
975,46	0,64
975,71	9,64
975,95	-5,36
976,19	-3,36
976,44	5,64
976,68	24,64
976,93	29,64
977,17	31,64
977,42	21,64
977,66	13,64
977,90	18,64
978,15	9,64
978,39	11,64
978,64	-5,36
978,88	-0,36
979,12	22,64
979,37	13,64
979,61	26,64
979,86	12,64
980,10	1,64
980,35	-3,36
980,59	0,64
980,83	2,64
981,08	11,64
981,32	5,64
981,57	7,64
981,81	-8,36
982,05	-9,36
982,30	-2,36
982,54	-4,36
982,79	31,64
983,03	-2,36
983,27	18,64
983,52	-0,36
983,76	6,64
984,01	7,64
984,25	16,64
984,49	22,64
984,74	6,64
984,98	0,64
985,23	10,64
985,47	2,64
985,71	-15,36
985,96	21,64
986,20	-16,36
986,45	-17,36
986,69	3,64
986,93	-1,36
987,18	12,64
987,42	3,64
987,66	21,64
987,91	1,64
988,15	-6,36
988,40	4,64
988,64	-2,36
988,88	2,64
989,13	12,64
989,37	20,64
989,61	-7,36
989,86	-2,36
990,10	-5,36
990,35	-6,36
990,59	12,64
990,83	-7,36
991,08	-7,36
991,32	-3,36
991,56	16,64
991,81	-1,36
992,05	12,64
992,30	16,64
992,54	-0,36
992,78	-9,36
993,03	15,64
993,27	-5,36
993,51	10,64
993,76	-14,36
994,00	-13,36
994,24	11,64
994,49	-6,36
994,73	12,64
994,98	2,64
995,22	21,64
995,46	7,64
995,71	12,64
995,95	1,64
996,19	0,64
996,44	25,64
996,68	7,64
996,92	-7,36
997,17	10,64
997,41	17,64
997,65	13,64
997,90	23,64
998,14	32,64
998,38	17,64
998,63	10,64
998,87	7,64
999,11	-11,36
999,36	18,64
999,60	9,64
999,84	12,64
1000,09	26,64
1000,33	13,64
1000,57	-0,36
1000,82	-1,36
1001,06	-1,36
1001,30	-4,36
1001,55	-4,36
1001,79	-18,36
1002,03	-2,36
1002,28	0,64
1002,52	-6,36
1002,76	10,64
1003,01	-3,36
1003,25	-5,36
1003,49	4,64
1003,74	-5,36
1003,98	-12,36
1004,22	5,64
1004,47	24,64
1004,71	13,64
1004,95	5,64
1005,20	3,64
1005,44	7,64
1005,68	-11,36
1005,93	-19,36
1006,17	-2,36
1006,41	-2,36
1006,66	-0,36
1006,90	3,64
1007,14	2,64
1007,38	5,64
1007,63	20,64
1007,87	3,64
1008,11	-9,36
1008,36	-9,36
1008,60	-5,36
1008,84	18,64
1009,09	-3,36
1009,33	4,64
1009,57	5,64
1009,81	10,64
1010,06	18,64
1010,30	0,64
1010,54	14,64
1010,79	-7,36
1011,03	-3,36
1011,27	-13,36
1011,52	19,64
1011,76	20,64
1012,00	20,64
1012,24	16,64
1012,49	8,64
1012,73	6,64
1012,97	32,64
1013,22	13,64
1013,46	18,64
1013,70	5,64
1013,94	17,64
1014,19	19,64
1014,43	22,64
1014,67	3,64
1014,92	22,64
1015,16	17,64
1015,40	4,64
1015,64	0,64
1015,89	26,64
1016,13	9,64
1016,37	-4,36
1016,62	8,64
1016,86	-18,36
1017,10	6,64
1017,34	-8,36
1017,59	-0,36
1017,83	7,64
1018,07	19,64
1018,31	22,64
1018,56	19,64
1018,80	16,64
1019,04	5,64
1019,28	-2,36
1019,53	-7,36
1019,77	17,64
1020,01	-13,36
1020,26	-12,36
1020,50	2,64
1020,74	-5,36
1020,98	-11,36
1021,23	-5,36
1021,47	10,64
1021,71	26,64
1021,95	22,64
1022,20	-13,36
1022,44	7,64
1022,68	-11,36
1022,92	18,64
1023,17	6,64
1023,41	-0,36
1023,65	0,64
1023,89	20,64
1024,14	15,64
1024,38	8,64
1024,62	-6,36
1024,86	5,64
1025,11	27,64
1025,35	5,64
1025,59	15,64
1025,83	15,64
1026,07	10,64
1026,32	-3,36
1026,56	-12,36
1026,80	-2,36
1027,04	-5,36
1027,29	14,64
1027,53	11,64
1027,77	-0,36
1028,01	6,64
1028,26	17,64
1028,50	-11,36
1028,74	4,64
1028,98	16,64
1029,22	-7,36
1029,47	0,64
1029,71	5,64
1029,95	-0,36
1030,19	-5,36
1030,44	7,64
1030,68	14,64
1030,92	7,64
1031,16	12,64
1031,40	-11,36
1031,65	-8,36
1031,89	3,64
1032,13	13,64
1032,37	-15,36
1032,62	-11,36
1032,86	-11,36
1033,10	-14,36
1033,34	-12,36
1033,58	7,64
1033,83	13,64
1034,07	0,64
1034,31	-9,36
1034,55	4,64
1034,79	23,64
1035,04	25,64
1035,28	8,64
1035,52	9,64
1035,76	11,64
1036,00	9,64
1036,25	1,64
1036,49	8,64
1036,73	9,64
1036,97	15,64
1037,21	-5,36
1037,46	-7,36
1037,70	-2,36
1037,94	-20,36
1038,18	3,64
1038,42	5,64
1038,67	11,64
1038,91	4,64
1039,15	1,64
1039,39	3,64
1039,63	11,64
1039,88	11,64
1040,12	26,64
1040,36	7,64
1040,60	12,64
1040,84	19,64
1041,08	21,64
1041,33	3,64
1041,57	0,64
1041,81	3,64
1042,05	5,64
1042,29	-1,36
1042,53	8,64
1042,78	-4,36
1043,02	-3,36
1043,26	-5,36
1043,50	-2,36
1043,74	-16,36
1043,99	19,64
1044,23	5,64
1044,47	-4,36
1044,71	2,64
1044,95	-5,36
1045,19	11,64
1045,44	10,64
1045,68	13,64
1045,92	14,64
1046,16	-7,36
1046,40	-3,36
1046,64	11,64
1046,88	14,64
1047,13	-10,36
1047,37	24,64
1047,61	16,64
1047,85	11,64
1048,09	-4,36
1048,33	6,64
1048,58	3,64
1048,82	-8,36
1049,06	3,64
1049,30	-9,36
1049,54	-4,36
1049,78	-6,36
1050,02	17,64
1050,27	3,64
1050,51	-4,36
1050,75	10,64
1050,99	6,64
1051,23	6,64
1051,47	5,64
1051,71	-15,36
1051,96	5,64
1052,20	18,64
1052,44	1,64
1052,68	-14,36
1052,92	6,64
1053,16	-8,36
1053,40	11,64
1053,65	8,64
1053,89	-2,36
1054,13	14,64
1054,37	16,64
1054,61	-6,36
1054,85	18,64
1055,09	-10,36
1055,33	-0,36
1055,58	-10,36
1055,82	4,64
1056,06	7,64
1056,30	7,64
1056,54	-14,36
1056,78	2,64
1057,02	-6,36
1057,26	1,64
1057,51	-0,36
1057,75	-4,36
1057,99	13,64
1058,23	2,64
1058,47	20,64
1058,71	3,64
1058,95	-3,36
1059,19	-0,36
1059,43	-8,36
1059,68	27,64
1059,92	15,64
1060,16	-5,36
1060,40	13,64
1060,64	-3,36
1060,88	-1,36
1061,12	8,64
1061,36	27,64
1061,60	22,64
1061,84	-7,36
1062,09	-10,36
1062,33	-18,36
1062,57	-5,36
1062,81	6,64
1063,05	23,64
1063,29	13,64
1063,53	3,64
1063,77	0,64
1064,01	7,64
1064,25	-14,36
1064,50	-6,36
1064,74	-0,36
1064,98	-10,36
1065,22	8,64
1065,46	2,64
1065,70	7,64
1065,94	-5,36
1066,18	-11,36
1066,42	1,64
1066,66	-11,36
1066,90	-0,36
1067,14	4,64
1067,39	19,64
1067,63	3,64
1067,87	13,64
1068,11	1,64
1068,35	11,64
1068,59	11,64
1068,83	5,64
1069,07	-4,36
1069,31	-13,36
1069,55	20,64
1069,79	-7,36
1070,03	12,64
1070,27	15,64
1070,52	10,64
1070,76	14,64
1071,00	2,64
1071,24	5,64
1071,48	-6,36
1071,72	9,64
1071,96	9,64
1072,20	0,64
1072,44	-9,36
1072,68	12,64
1072,92	-0,36
1073,16	-9,36
1073,40	13,64
1073,64	5,64
1073,88	5,64
1074,12	4,64
1074,36	5,64
1074,61	-1,36
1074,85	-3,36
1075,09	-27,36
1075,33	-5,36
1075,57	8,64
1075,81	-17,36
1076,05	-6,36
1076,29	1,64
1076,53	16,64
1076,77	15,64
1077,01	-1,36
1077,25	12,64
1077,49	-2,36
1077,73	-7,36
1077,97	3,64
1078,21	0,64
1078,45	0,64
1078,69	7,64
1078,93	10,64
1079,17	-7,36
1079,41	6,64
1079,65	-4,36
1079,89	-5,36
1080,13	-24,36
1080,37	-12,36
1080,61	-9,36
1080,86	7,64
1081,10	11,64
1081,34	3,64
1081,58	4,64
1081,82	10,64
1082,06	-13,36
1082,30	3,64
1082,54	21,64
1082,78	-4,36
1083,02	22,64
1083,26	-0,36
1083,50	8,64
1083,74	8,64
1083,98	-17,36
1084,22	-26,36
1084,46	-26,36
1084,70	8,64
1084,94	25,64
1085,18	9,64
1085,42	-0,36
1085,66	-6,36
1085,90	-0,36
1086,14	-0,36
1086,38	3,64
1086,62	-0,36
1086,86	-15,36
1087,10	-2,36
1087,34	1,64
1087,58	-5,36
1087,82	-3,36
1088,06	-7,36
1088,30	-10,36
1088,54	5,64
1088,78	-10,36
1089,02	9,64
1089,26	6,64
1089,50	-9,36
1089,74	10,64
1089,98	8,64
1090,22	-3,36
1090,46	6,64
1090,70	-1,36
1090,94	6,64
1091,18	-12,36
1091,42	-6,36
1091,66	3,64
1091,90	6,64
1092,14	15,64
1092,38	19,64
1092,62	-7,36
1092,86	1,64
1093,10	8,64
1093,34	0,64
1093,58	8,64
1093,82	8,64
1094,06	6,64
1094,30	9,64
1094,54	-7,36
1094,78	1,64
1095,01	-11,36
1095,25	-9,36
1095,49	-2,36
1095,73	-3,36
1095,97	3,64
1096,21	2,64
1096,45	-9,36
1096,69	2,64
1096,93	3,64
1097,17	-2,36
1097,41	8,64
1097,65	31,64
1097,89	17,64
1098,13	13,64
1098,37	-3,36
1098,61	-4,36
1098,85	4,64
1099,09	8,64
1099,33	-3,36
1099,57	30,64
1099,81	9,64
1100,05	5,64
1100,29	-1,36
1100,53	-12,36
1100,77	-9,36
1101,00	2,64
1101,24	-14,36
1101,48	3,64
1101,72	-2,36
1101,96	19,64
1102,20	4,64
1102,44	1,64
1102,68	-6,36
1102,92	-3,36
1103,16	-3,36
1103,40	-10,36
1103,64	-0,36
1103,88	0,64
1104,12	9,64
1104,36	-9,36
1104,60	5,64
1104,84	11,64
1105,07	2,64
1105,31	14,64
1105,55	-6,36
1105,79	23,64
1106,03	-15,36
1106,27	5,64
1106,51	21,64
1106,75	-9,36
1106,99	-6,36
1107,23	9,64
1107,47	3,64
1107,71	14,64
1107,95	22,64
1108,18	5,64
1108,42	7,64
1108,66	24,64
1108,90	-1,36
1109,14	3,64
1109,38	13,64
1109,62	11,64
1109,86	0,64
1110,10	3,64
1110,34	3,64
1110,58	5,64
1110,82	0,64
1111,05	-9,36
1111,29	-15,36
1111,53	-8,36
1111,77	-21,36
1112,01	14,64
1112,25	13,64
1112,49	-6,36
1112,73	-2,36
1112,97	-1,36
1113,21	-16,36
1113,45	-9,36
1113,68	12,64
1113,92	13,64
1114,16	-18,36
1114,40	-0,36
1114,64	17,64
1114,88	-17,36
1115,12	-4,36
1115,36	14,64
1115,60	-3,36
1115,83	-13,36
1116,07	5,64
1116,31	17,64
1116,55	-6,36
1116,79	1,64
1117,03	0,64
1117,27	-10,36
1117,51	-8,36
1117,75	-21,36
1117,98	-3,36
1118,22	4,64
1118,46	-7,36
1118,70	-12,36
1118,94	0,64
1119,18	-2,36
1119,42	11,64
1119,66	-7,36
1119,89	9,64
1120,13	-7,36
1120,37	-2,36
1120,61	-7,36
1120,85	-4,36
1121,09	5,64
1121,33	9,64
1121,57	-9,36
1121,80	10,64
1122,04	-21,36
1122,28	-19,36
1122,52	-2,36
1122,76	-1,36
1123,00	-8,36
1123,24	3,64
1123,47	16,64
1123,71	7,64
>>>>>End Processed Spectral Data<<<<<
