SpectraSuite Data File
++++++++++++++++++++++++++++++++++++
Date: Sun Jan 01 02:31:01 GMT-03:00 2006
User: Lavfis
Dark Spectrum Present: Yes
Reference Spectrum Present: No
Number of Sampled Component Spectra: 1
Spectrometers: HR4C5405
Integration Time (usec): 80000 (HR4C5405)
Spectra Averaged: 1 (HR4C5405)
Boxcar Smoothing: 0 (HR4C5405)
Correct for Electrical Dark: Yes (HR4C5405)
Strobe/Lamp Enabled: No (HR4C5405)
Correct for Detector Non-linearity: No (HR4C5405)
Correct for Stray Light: No (HR4C5405)
Number of Pixels in Processed Spectrum: 3648
>>>>>Begin Processed Spectral Data<<<<<
194,53	2,00
194,80	14,36
195,07	14,36
195,34	21,36
195,61	5,36
195,88	-5,64
196,15	7,36
196,42	14,36
196,69	5,36
196,96	4,36
197,23	-3,64
197,50	3,36
197,77	-0,64
198,04	-12,64
198,31	-9,64
198,58	-12,64
198,85	-11,64
199,12	18,36
199,39	0,36
199,66	-0,64
199,93	14,36
200,20	-5,64
200,47	-1,64
200,74	-4,64
201,01	-6,64
201,28	13,36
201,55	-0,64
201,82	-31,64
202,09	-6,64
202,36	11,36
202,63	-11,64
202,90	-14,64
203,17	-17,64
203,44	-19,64
203,71	-4,64
203,98	8,36
204,25	-8,64
204,52	-7,64
204,79	5,36
205,06	-10,64
205,33	12,36
205,60	20,36
205,86	26,36
206,13	11,36
206,40	-5,64
206,67	-31,64
206,94	5,36
207,21	5,36
207,48	-0,64
207,75	-4,64
208,02	-18,64
208,29	-6,64
208,56	7,36
208,83	-9,64
209,10	7,36
209,37	11,36
209,64	12,36
209,91	16,36
210,18	-0,64
210,45	-3,64
210,72	-6,64
210,99	-9,64
211,26	-1,64
211,53	12,36
211,80	11,36
212,07	6,36
212,33	0,36
212,60	21,36
212,87	-11,64
213,14	2,36
213,41	2,36
213,68	7,36
213,95	-6,64
214,22	10,36
214,49	2,36
214,76	20,36
215,03	-2,64
215,30	-9,64
215,57	2,36
215,84	7,36
216,11	-13,64
216,38	4,36
216,65	14,36
216,91	-0,64
217,18	1,36
217,45	16,36
217,72	4,36
217,99	-10,64
218,26	5,36
218,53	-1,64
218,80	-7,64
219,07	5,36
219,34	-14,64
219,61	-2,64
219,88	5,36
220,15	-8,64
220,42	1,36
220,68	-0,64
220,95	10,36
221,22	21,36
221,49	-1,64
221,76	-0,64
222,03	-15,64
222,30	-4,64
222,57	15,36
222,84	8,36
223,11	-3,64
223,38	-6,64
223,65	-15,64
223,92	17,36
224,18	-7,64
224,45	18,36
224,72	5,36
224,99	-8,64
225,26	-9,64
225,53	-7,64
225,80	-16,64
226,07	-24,64
226,34	5,36
226,61	16,36
226,88	7,36
227,14	4,36
227,41	-0,64
227,68	0,36
227,95	-12,64
228,22	7,36
228,49	7,36
228,76	6,36
229,03	-2,64
229,30	17,36
229,57	0,36
229,83	12,36
230,10	-4,64
230,37	-2,64
230,64	11,36
230,91	8,36
231,18	-0,64
231,45	-2,64
231,72	7,36
231,99	12,36
232,25	2,36
232,52	-3,64
232,79	-10,64
233,06	-19,64
233,33	20,36
233,60	0,36
233,87	1,36
234,14	12,36
234,41	-1,64
234,67	10,36
234,94	16,36
235,21	21,36
235,48	0,36
235,75	13,36
236,02	13,36
236,29	19,36
236,56	-4,64
236,82	2,36
237,09	22,36
237,36	19,36
237,63	-1,64
237,90	5,36
238,17	8,36
238,44	5,36
238,71	11,36
238,97	-7,64
239,24	-9,64
239,51	-5,64
239,78	7,36
240,05	0,36
240,32	-8,64
240,59	17,36
240,86	20,36
241,12	18,36
241,39	11,36
241,66	2,36
241,93	10,36
242,20	5,36
242,47	7,36
242,74	-1,64
243,00	13,36
243,27	-3,64
243,54	-2,64
243,81	20,36
244,08	7,36
244,35	7,36
244,62	22,36
244,88	6,36
245,15	2,36
245,42	6,36
245,69	2,36
245,96	0,36
246,23	-2,64
246,50	-15,64
246,76	-10,64
247,03	-8,64
247,30	-7,64
247,57	7,36
247,84	-5,64
248,11	3,36
248,37	1,36
248,64	-0,64
248,91	14,36
249,18	10,36
249,45	-21,64
249,72	5,36
249,99	-2,64
250,25	-13,64
250,52	7,36
250,79	13,36
251,06	12,36
251,33	19,36
251,60	7,36
251,86	9,36
252,13	7,36
252,40	12,36
252,67	-13,64
252,94	-8,64
253,21	14,36
253,47	-3,64
253,74	-0,64
254,01	25,36
254,28	11,36
254,55	5,36
254,81	4,36
255,08	5,36
255,35	-16,64
255,62	13,36
255,89	10,36
256,16	11,36
256,42	8,36
256,69	12,36
256,96	14,36
257,23	5,36
257,50	21,36
257,76	18,36
258,03	0,36
258,30	4,36
258,57	14,36
258,84	5,36
259,11	5,36
259,37	10,36
259,64	-0,64
259,91	7,36
260,18	-4,64
260,45	3,36
260,71	10,36
260,98	4,36
261,25	2,36
261,52	3,36
261,79	9,36
262,05	2,36
262,32	16,36
262,59	14,36
262,86	23,36
263,13	27,36
263,39	4,36
263,66	11,36
263,93	9,36
264,20	3,36
264,47	5,36
264,73	3,36
265,00	12,36
265,27	19,36
265,54	17,36
265,81	0,36
266,07	2,36
266,34	8,36
266,61	-1,64
266,88	6,36
267,15	-3,64
267,41	11,36
267,68	-6,64
267,95	12,36
268,22	4,36
268,48	12,36
268,75	25,36
269,02	2,36
269,29	-8,64
269,56	15,36
269,82	6,36
270,09	19,36
270,36	-2,64
270,63	1,36
270,89	-4,64
271,16	-16,64
271,43	4,36
271,70	14,36
271,97	-6,64
272,23	6,36
272,50	16,36
272,77	5,36
273,04	9,36
273,30	19,36
273,57	9,36
273,84	-6,64
274,11	10,36
274,37	-15,64
274,64	-1,64
274,91	13,36
275,18	24,36
275,45	14,36
275,71	14,36
275,98	9,36
276,25	14,36
276,52	-1,64
276,78	17,36
277,05	7,36
277,32	4,36
277,59	-6,64
277,85	4,36
278,12	11,36
278,39	-2,64
278,66	-6,64
278,92	4,36
279,19	14,36
279,46	10,36
279,73	4,36
279,99	12,36
280,26	4,36
280,53	-6,64
280,80	10,36
281,06	2,36
281,33	1,36
281,60	5,36
281,87	10,36
282,13	-7,64
282,40	8,36
282,67	8,36
282,94	3,36
283,20	8,36
283,47	20,36
283,74	-14,64
284,01	-4,64
284,27	13,36
284,54	-10,64
284,81	-1,64
285,07	-10,64
285,34	-1,64
285,61	2,36
285,88	-2,64
286,14	9,36
286,41	18,36
286,68	10,36
286,95	18,36
287,21	12,36
287,48	-1,64
287,75	11,36
288,02	-2,64
288,28	6,36
288,55	12,36
288,82	4,36
289,08	-6,64
289,35	-4,64
289,62	13,36
289,89	-9,64
290,15	4,36
290,42	-26,64
290,69	17,36
290,95	2,36
291,22	10,36
291,49	22,36
291,76	3,36
292,02	12,36
292,29	12,36
292,56	-10,64
292,82	32,36
293,09	42,36
293,36	13,36
293,63	-1,64
293,89	3,36
294,16	20,36
294,43	11,36
294,69	7,36
294,96	22,36
295,23	-1,64
295,50	1,36
295,76	23,36
296,03	12,36
296,30	-1,64
296,56	18,36
296,83	15,36
297,10	18,36
297,36	-2,64
297,63	-0,64
297,90	23,36
298,16	9,36
298,43	19,36
298,70	-6,64
298,97	1,36
299,23	10,36
299,50	10,36
299,77	2,36
300,03	-1,64
300,30	9,36
300,57	-13,64
300,83	6,36
301,10	26,36
301,37	9,36
301,63	-9,64
301,90	25,36
302,17	9,36
302,44	-2,64
302,70	2,36
302,97	9,36
303,24	2,36
303,50	5,36
303,77	9,36
304,04	6,36
304,30	24,36
304,57	29,36
304,84	26,36
305,10	14,36
305,37	19,36
305,64	20,36
305,90	9,36
306,17	14,36
306,44	14,36
306,70	4,36
306,97	5,36
307,24	2,36
307,50	-5,64
307,77	2,36
308,04	-2,64
308,30	4,36
308,57	3,36
308,84	8,36
309,10	6,36
309,37	-4,64
309,64	-1,64
309,90	8,36
310,17	25,36
310,44	12,36
310,70	15,36
310,97	-2,64
311,24	11,36
311,50	0,36
311,77	36,36
312,04	5,36
312,30	18,36
312,57	22,36
312,84	14,36
313,10	34,36
313,37	4,36
313,63	33,36
313,90	28,36
314,17	3,36
314,43	0,36
314,70	12,36
314,97	35,36
315,23	15,36
315,50	-2,64
315,77	10,36
316,03	3,36
316,30	1,36
316,57	32,36
316,83	20,36
317,10	25,36
317,36	24,36
317,63	23,36
317,90	12,36
318,16	11,36
318,43	29,36
318,70	24,36
318,96	19,36
319,23	13,36
319,50	8,36
319,76	6,36
320,03	22,36
320,29	30,36
320,56	20,36
320,83	14,36
321,09	-5,64
321,36	1,36
321,63	14,36
321,89	13,36
322,16	32,36
322,42	15,36
322,69	2,36
322,96	4,36
323,22	5,36
323,49	21,36
323,76	26,36
324,02	25,36
324,29	14,36
324,55	21,36
324,82	16,36
325,09	31,36
325,35	4,36
325,62	-0,64
325,88	17,36
326,15	20,36
326,42	12,36
326,68	27,36
326,95	13,36
327,21	24,36
327,48	21,36
327,75	39,36
328,01	18,36
328,28	19,36
328,55	19,36
328,81	27,36
329,08	30,36
329,34	20,36
329,61	34,36
329,88	16,36
330,14	29,36
330,41	30,36
330,67	21,36
330,94	8,36
331,21	38,36
331,47	19,36
331,74	33,36
332,00	32,36
332,27	31,36
332,53	55,36
332,80	32,36
333,07	40,36
333,33	34,36
333,60	36,36
333,86	32,36
334,13	37,36
334,40	34,36
334,66	24,36
334,93	38,36
335,19	27,36
335,46	32,36
335,73	35,36
335,99	41,36
336,26	16,36
336,52	40,36
336,79	47,36
337,05	51,36
337,32	48,36
337,59	48,36
337,85	41,36
338,12	41,36
338,38	38,36
338,65	53,36
338,91	36,36
339,18	26,36
339,45	48,36
339,71	59,36
339,98	58,36
340,24	63,36
340,51	63,36
340,77	64,36
341,04	50,36
341,31	62,36
341,57	68,36
341,84	81,36
342,10	75,36
342,37	61,36
342,63	83,36
342,90	75,36
343,17	64,36
343,43	64,36
343,70	75,36
343,96	44,36
344,23	91,36
344,49	81,36
344,76	74,36
345,02	110,36
345,29	97,36
345,56	113,36
345,82	101,36
346,09	100,36
346,35	104,36
346,62	96,36
346,88	136,36
347,15	139,36
347,41	140,36
347,68	154,36
347,94	157,36
348,21	182,36
348,48	213,36
348,74	246,36
349,01	246,36
349,27	258,36
349,54	296,36
349,80	304,36
350,07	338,36
350,33	327,36
350,60	365,36
350,86	362,36
351,13	431,36
351,39	458,36
351,66	507,36
351,93	580,36
352,19	603,36
352,46	701,36
352,72	744,36
352,99	817,36
353,25	922,36
353,52	980,36
353,78	1121,36
354,05	1183,36
354,31	1324,36
354,58	1433,36
354,84	1611,36
355,11	1756,36
355,37	1870,36
355,64	2089,36
355,90	2263,36
356,17	2484,36
356,43	2762,36
356,70	2961,36
356,97	3202,36
357,23	3471,36
357,50	3766,36
357,76	4054,36
358,03	4417,36
358,29	4728,36
358,56	5150,36
358,82	5388,36
359,09	5787,36
359,35	6240,36
359,62	6759,36
359,88	7143,36
360,15	7692,36
360,41	8054,36
360,68	8812,36
360,94	9537,36
361,21	9982,36
361,47	10694,36
361,74	11013,36
362,00	11763,36
362,27	12069,36
362,53	12528,36
362,80	13070,36
363,06	13459,36
363,33	14136,36
363,59	15097,36
363,86	15159,36
364,12	15154,36
364,39	15162,36
364,65	15153,36
364,92	15155,36
365,18	15149,36
365,45	15167,36
365,71	15163,36
365,98	15155,36
366,24	15153,36
366,51	15194,36
366,77	15163,36
367,04	15149,36
367,30	15163,36
367,57	15177,36
367,83	15176,36
368,10	15150,36
368,36	15175,36
368,63	15176,36
368,89	15163,36
369,15	15150,36
369,42	15165,36
369,68	15178,36
369,95	15170,36
370,21	15168,36
370,48	15169,36
370,74	15180,36
371,01	15167,36
371,27	15180,36
371,54	15178,36
371,80	15175,36
372,07	15173,36
372,33	15172,36
372,60	14996,36
372,86	14920,36
373,13	14711,36
373,39	14516,36
373,66	14184,36
373,92	13932,36
374,18	13638,36
374,45	13546,36
374,71	13359,36
374,98	12793,36
375,24	12650,36
375,51	12588,36
375,77	12229,36
376,04	12083,36
376,30	11524,36
376,57	11364,36
376,83	11008,36
377,10	10648,36
377,36	10648,36
377,62	10357,36
377,89	9892,36
378,15	9843,36
378,42	9543,36
378,68	9234,36
378,95	8980,36
379,21	8765,36
379,48	8561,36
379,74	8308,36
380,00	7964,36
380,27	7675,36
380,53	7458,36
380,80	7245,36
381,06	6913,36
381,33	6770,36
381,59	6580,36
381,86	6241,36
382,12	6104,36
382,38	5845,36
382,65	5720,36
382,91	5455,36
383,18	5234,36
383,44	5125,36
383,71	4857,36
383,97	4765,36
384,24	4542,36
384,50	4392,36
384,76	4145,36
385,03	3918,36
385,29	3951,36
385,56	3745,36
385,82	3620,36
386,09	3397,36
386,35	3269,36
386,61	3170,36
386,88	3042,36
387,14	2981,36
387,41	2794,36
387,67	2697,36
387,94	2639,36
388,20	2508,36
388,46	2430,36
388,73	2317,36
388,99	2252,36
389,26	2140,36
389,52	2045,36
389,78	1979,36
390,05	1924,36
390,31	1788,36
390,58	1724,36
390,84	1629,36
391,11	1563,36
391,37	1473,36
391,63	1412,36
391,90	1374,36
392,16	1298,36
392,43	1238,36
392,69	1177,36
392,95	1124,36
393,22	1045,36
393,48	1032,36
393,75	1020,36
394,01	952,36
394,27	921,36
394,54	841,36
394,80	792,36
395,07	765,36
395,33	729,36
395,59	708,36
395,86	667,36
396,12	652,36
396,39	617,36
396,65	617,36
396,91	543,36
397,18	536,36
397,44	500,36
397,71	525,36
397,97	469,36
398,23	438,36
398,50	437,36
398,76	413,36
399,03	396,36
399,29	394,36
399,55	378,36
399,82	376,36
400,08	357,36
400,34	324,36
400,61	320,36
400,87	340,36
401,14	361,36
401,40	448,36
401,66	521,36
401,93	589,36
402,19	627,36
402,46	728,36
402,72	877,36
402,98	1271,36
403,25	1951,36
403,51	2759,36
403,77	3095,36
404,04	2797,36
404,30	1930,36
404,57	1100,36
404,83	609,36
405,09	338,36
405,36	251,36
405,62	205,36
405,88	232,36
406,15	232,36
406,41	248,36
406,67	300,36
406,94	304,36
407,20	277,36
407,47	223,36
407,73	161,36
407,99	116,36
408,26	123,36
408,52	127,36
408,78	115,36
409,05	116,36
409,31	110,36
409,57	114,36
409,84	98,36
410,10	112,36
410,37	95,36
410,63	89,36
410,89	73,36
411,16	106,36
411,42	86,36
411,68	92,36
411,95	79,36
412,21	74,36
412,47	76,36
412,74	85,36
413,00	60,36
413,26	79,36
413,53	73,36
413,79	65,36
414,05	59,36
414,32	84,36
414,58	71,36
414,84	61,36
415,11	72,36
415,37	52,36
415,63	69,36
415,90	63,36
416,16	54,36
416,42	25,36
416,69	34,36
416,95	58,36
417,21	53,36
417,48	41,36
417,74	34,36
418,00	50,36
418,27	48,36
418,53	41,36
418,79	51,36
419,06	51,36
419,32	47,36
419,58	41,36
419,85	24,36
420,11	35,36
420,37	50,36
420,64	21,36
420,90	33,36
421,16	27,36
421,43	45,36
421,69	34,36
421,95	53,36
422,22	25,36
422,48	21,36
422,74	31,36
423,01	20,36
423,27	35,36
423,53	33,36
423,79	13,36
424,06	32,36
424,32	31,36
424,58	21,36
424,85	22,36
425,11	26,36
425,37	20,36
425,64	38,36
425,90	11,36
426,16	8,36
426,43	31,36
426,69	51,36
426,95	9,36
427,21	29,36
427,48	37,36
427,74	44,36
428,00	39,36
428,27	34,36
428,53	16,36
428,79	27,36
429,06	19,36
429,32	8,36
429,58	27,36
429,84	19,36
430,11	14,36
430,37	18,36
430,63	26,36
430,90	5,36
431,16	20,36
431,42	10,36
431,68	16,36
431,95	29,36
432,21	27,36
432,47	39,36
432,74	45,36
433,00	54,36
433,26	51,36
433,52	57,36
433,79	68,36
434,05	83,36
434,31	130,36
434,58	185,36
434,84	197,36
435,10	141,36
435,36	116,36
435,63	89,36
435,89	54,36
436,15	52,36
436,41	9,36
436,68	15,36
436,94	21,36
437,20	6,36
437,47	15,36
437,73	11,36
437,99	22,36
438,25	36,36
438,52	4,36
438,78	-13,64
439,04	9,36
439,30	14,36
439,57	33,36
439,83	9,36
440,09	27,36
440,35	21,36
440,62	2,36
440,88	23,36
441,14	-0,64
441,41	48,36
441,67	22,36
441,93	3,36
442,19	36,36
442,46	8,36
442,72	24,36
442,98	10,36
443,24	-5,64
443,51	24,36
443,77	4,36
444,03	21,36
444,29	21,36
444,56	20,36
444,82	12,36
445,08	17,36
445,34	12,36
445,61	5,36
445,87	-1,64
446,13	18,36
446,39	14,36
446,65	-4,64
446,92	-11,64
447,18	11,36
447,44	13,36
447,70	8,36
447,97	17,36
448,23	21,36
448,49	13,36
448,75	25,36
449,02	12,36
449,28	24,36
449,54	-4,64
449,80	43,36
450,07	21,36
450,33	26,36
450,59	14,36
450,85	8,36
451,11	23,36
451,38	7,36
451,64	-9,64
451,90	3,36
452,16	24,36
452,43	16,36
452,69	6,36
452,95	-1,64
453,21	32,36
453,47	16,36
453,74	11,36
454,00	6,36
454,26	6,36
454,52	8,36
454,79	4,36
455,05	7,36
455,31	27,36
455,57	15,36
455,83	22,36
456,10	8,36
456,36	7,36
456,62	23,36
456,88	16,36
457,14	5,36
457,41	13,36
457,67	24,36
457,93	-0,64
458,19	10,36
458,45	5,36
458,72	18,36
458,98	22,36
459,24	-2,64
459,50	-10,64
459,76	5,36
460,03	18,36
460,29	-5,64
460,55	11,36
460,81	39,36
461,07	-4,64
461,34	21,36
461,60	-6,64
461,86	12,36
462,12	-5,64
462,38	6,36
462,65	-1,64
462,91	-3,64
463,17	4,36
463,43	2,36
463,69	14,36
463,96	1,36
464,22	7,36
464,48	3,36
464,74	19,36
465,00	34,36
465,26	23,36
465,53	19,36
465,79	29,36
466,05	29,36
466,31	-2,64
466,57	7,36
466,84	16,36
467,10	-5,64
467,36	5,36
467,62	15,36
467,88	11,36
468,14	8,36
468,41	-8,64
468,67	-10,64
468,93	19,36
469,19	8,36
469,45	8,36
469,71	4,36
469,98	4,36
470,24	1,36
470,50	-14,64
470,76	-6,64
471,02	-10,64
471,28	-24,64
471,55	1,36
471,81	3,36
472,07	-6,64
472,33	18,36
472,59	0,36
472,85	23,36
473,12	27,36
473,38	10,36
473,64	6,36
473,90	-4,64
474,16	20,36
474,42	2,36
474,68	10,36
474,95	7,36
475,21	13,36
475,47	24,36
475,73	-3,64
475,99	12,36
476,25	14,36
476,52	-0,64
476,78	4,36
477,04	-2,64
477,30	-5,64
477,56	-9,64
477,82	15,36
478,08	2,36
478,35	1,36
478,61	1,36
478,87	-0,64
479,13	11,36
479,39	6,36
479,65	3,36
479,91	9,36
480,17	4,36
480,44	8,36
480,70	1,36
480,96	3,36
481,22	11,36
481,48	0,36
481,74	1,36
482,00	-12,64
482,27	-7,64
482,53	5,36
482,79	-15,64
483,05	-0,64
483,31	9,36
483,57	9,36
483,83	-8,64
484,09	19,36
484,36	11,36
484,62	-11,64
484,88	28,36
485,14	8,36
485,40	9,36
485,66	-9,64
485,92	-7,64
486,18	3,36
486,44	-6,64
486,71	-4,64
486,97	-10,64
487,23	1,36
487,49	-3,64
487,75	-2,64
488,01	14,36
488,27	-7,64
488,53	-8,64
488,79	10,36
489,06	0,36
489,32	0,36
489,58	-3,64
489,84	0,36
490,10	-2,64
490,36	4,36
490,62	3,36
490,88	20,36
491,14	6,36
491,40	7,36
491,67	2,36
491,93	-7,64
492,19	3,36
492,45	5,36
492,71	-10,64
492,97	-28,64
493,23	9,36
493,49	-7,64
493,75	-16,64
494,01	8,36
494,28	1,36
494,54	12,36
494,80	0,36
495,06	22,36
495,32	-7,64
495,58	4,36
495,84	2,36
496,10	19,36
496,36	15,36
496,62	2,36
496,88	-0,64
497,14	12,36
497,41	14,36
497,67	15,36
497,93	30,36
498,19	10,36
498,45	-16,64
498,71	-21,64
498,97	6,36
499,23	4,36
499,49	-11,64
499,75	-11,64
500,01	-12,64
500,27	-1,64
500,53	19,36
500,80	-10,64
501,06	1,36
501,32	5,36
501,58	-2,64
501,84	-10,64
502,10	11,36
502,36	-3,64
502,62	-11,64
502,88	3,36
503,14	3,36
503,40	-5,64
503,66	2,36
503,92	13,36
504,18	-7,64
504,44	2,36
504,70	9,36
504,97	17,36
505,23	22,36
505,49	17,36
505,75	6,36
506,01	9,36
506,27	3,36
506,53	5,36
506,79	0,36
507,05	-10,64
507,31	-4,64
507,57	-6,64
507,83	3,36
508,09	12,36
508,35	1,36
508,61	-3,64
508,87	-13,64
509,13	0,36
509,39	-11,64
509,65	3,36
509,91	9,36
510,17	11,36
510,43	-2,64
510,70	8,36
510,96	17,36
511,22	13,36
511,48	10,36
511,74	-3,64
512,00	-16,64
512,26	-1,64
512,52	6,36
512,78	-8,64
513,04	-7,64
513,30	11,36
513,56	9,36
513,82	21,36
514,08	-12,64
514,34	-0,64
514,60	-8,64
514,86	9,36
515,12	0,36
515,38	6,36
515,64	-5,64
515,90	-3,64
516,16	-26,64
516,42	-7,64
516,68	-18,64
516,94	-6,64
517,20	8,36
517,46	3,36
517,72	12,36
517,98	-9,64
518,24	-2,64
518,50	2,36
518,76	-8,64
519,02	1,36
519,28	5,36
519,54	6,36
519,80	12,36
520,06	-2,64
520,32	18,36
520,58	1,36
520,84	-4,64
521,10	16,36
521,36	-8,64
521,62	27,36
521,88	15,36
522,14	-0,64
522,40	6,36
522,66	-4,64
522,92	-27,64
523,18	12,36
523,44	22,36
523,70	17,36
523,96	11,36
524,22	7,36
524,48	1,36
524,74	6,36
525,00	3,36
525,26	-15,64
525,52	4,36
525,78	-13,64
526,04	-0,64
526,30	4,36
526,56	15,36
526,82	-2,64
527,08	1,36
527,34	-0,64
527,60	-4,64
527,86	-8,64
528,12	5,36
528,38	-7,64
528,64	-1,64
528,90	4,36
529,16	10,36
529,42	2,36
529,68	-4,64
529,94	0,36
530,20	12,36
530,46	14,36
530,72	8,36
530,98	12,36
531,24	23,36
531,50	19,36
531,76	2,36
532,02	11,36
532,28	11,36
532,54	8,36
532,80	-0,64
533,06	-9,64
533,32	11,36
533,58	26,36
533,84	11,36
534,10	4,36
534,35	-4,64
534,61	-14,64
534,87	-17,64
535,13	-0,64
535,39	20,36
535,65	13,36
535,91	12,36
536,17	20,36
536,43	-3,64
536,69	9,36
536,95	11,36
537,21	4,36
537,47	12,36
537,73	8,36
537,99	-3,64
538,25	-16,64
538,51	2,36
538,77	5,36
539,03	17,36
539,29	18,36
539,55	-10,64
539,80	-2,64
540,06	0,36
540,32	19,36
540,58	-0,64
540,84	-5,64
541,10	21,36
541,36	0,36
541,62	1,36
541,88	6,36
542,14	18,36
542,40	-2,64
542,66	7,36
542,92	-12,64
543,18	1,36
543,44	13,36
543,70	8,36
543,95	-1,64
544,21	8,36
544,47	13,36
544,73	15,36
544,99	-3,64
545,25	4,36
545,51	-11,64
545,77	-1,64
546,03	1,36
546,29	-0,64
546,55	7,36
546,81	5,36
547,07	-1,64
547,32	-9,64
547,58	0,36
547,84	20,36
548,10	8,36
548,36	0,36
548,62	17,36
548,88	18,36
549,14	14,36
549,40	-1,64
549,66	8,36
549,92	-2,64
550,18	8,36
550,43	-4,64
550,69	5,36
550,95	0,36
551,21	12,36
551,47	19,36
551,73	12,36
551,99	28,36
552,25	4,36
552,51	8,36
552,77	25,36
553,03	12,36
553,28	-2,64
553,54	8,36
553,80	-1,64
554,06	4,36
554,32	-6,64
554,58	1,36
554,84	5,36
555,10	14,36
555,36	13,36
555,61	12,36
555,87	20,36
556,13	8,36
556,39	11,36
556,65	11,36
556,91	-12,64
557,17	3,36
557,43	9,36
557,69	2,36
557,94	8,36
558,20	1,36
558,46	23,36
558,72	30,36
558,98	18,36
559,24	23,36
559,50	22,36
559,76	4,36
560,02	0,36
560,27	-0,64
560,53	3,36
560,79	10,36
561,05	9,36
561,31	6,36
561,57	18,36
561,83	3,36
562,09	11,36
562,34	10,36
562,60	13,36
562,86	15,36
563,12	4,36
563,38	0,36
563,64	9,36
563,90	14,36
564,15	7,36
564,41	-11,64
564,67	-1,64
564,93	2,36
565,19	9,36
565,45	19,36
565,71	-3,64
565,97	9,36
566,22	21,36
566,48	-0,64
566,74	36,36
567,00	14,36
567,26	34,36
567,52	5,36
567,78	12,36
568,03	7,36
568,29	9,36
568,55	18,36
568,81	13,36
569,07	24,36
569,33	30,36
569,58	22,36
569,84	6,36
570,10	40,36
570,36	15,36
570,62	4,36
570,88	-1,64
571,14	-2,64
571,39	2,36
571,65	4,36
571,91	-4,64
572,17	-2,64
572,43	-1,64
572,69	0,36
572,94	17,36
573,20	8,36
573,46	1,36
573,72	0,36
573,98	-4,64
574,24	5,36
574,49	4,36
574,75	0,36
575,01	41,36
575,27	15,36
575,53	19,36
575,79	18,36
576,04	-1,64
576,30	10,36
576,56	4,36
576,82	0,36
577,08	-4,64
577,33	-12,64
577,59	7,36
577,85	2,36
578,11	5,36
578,37	3,36
578,63	16,36
578,88	14,36
579,14	14,36
579,40	3,36
579,66	4,36
579,92	16,36
580,17	-2,64
580,43	8,36
580,69	6,36
580,95	14,36
581,21	14,36
581,47	-5,64
581,72	14,36
581,98	14,36
582,24	13,36
582,50	4,36
582,76	3,36
583,01	13,36
583,27	7,36
583,53	9,36
583,79	12,36
584,05	11,36
584,30	3,36
584,56	3,36
584,82	14,36
585,08	15,36
585,34	0,36
585,59	12,36
585,85	-5,64
586,11	-14,64
586,37	28,36
586,63	-11,64
586,88	0,36
587,14	12,36
587,40	-19,64
587,66	4,36
587,91	16,36
588,17	16,36
588,43	2,36
588,69	-10,64
588,95	8,36
589,20	6,36
589,46	-3,64
589,72	3,36
589,98	12,36
590,24	-2,64
590,49	1,36
590,75	7,36
591,01	23,36
591,27	20,36
591,52	5,36
591,78	11,36
592,04	24,36
592,30	2,36
592,55	3,36
592,81	-6,64
593,07	16,36
593,33	14,36
593,59	14,36
593,84	2,36
594,10	26,36
594,36	13,36
594,62	6,36
594,87	1,36
595,13	-12,64
595,39	26,36
595,65	19,36
595,90	0,36
596,16	21,36
596,42	6,36
596,68	0,36
596,93	2,36
597,19	8,36
597,45	14,36
597,71	26,36
597,97	24,36
598,22	16,36
598,48	7,36
598,74	-0,64
599,00	13,36
599,25	-2,64
599,51	0,36
599,77	-9,64
600,03	-5,64
600,28	14,36
600,54	-2,64
600,80	6,36
601,05	6,36
601,31	6,36
601,57	-9,64
601,83	3,36
602,08	5,36
602,34	-6,64
602,60	3,36
602,86	1,36
603,11	17,36
603,37	-4,64
603,63	-1,64
603,89	9,36
604,14	19,36
604,40	2,36
604,66	10,36
604,92	2,36
605,17	8,36
605,43	-20,64
605,69	1,36
605,94	11,36
606,20	13,36
606,46	-2,64
606,72	17,36
606,97	16,36
607,23	-4,64
607,49	8,36
607,75	-3,64
608,00	6,36
608,26	11,36
608,52	18,36
608,77	-8,64
609,03	-0,64
609,29	5,36
609,55	9,36
609,80	15,36
610,06	3,36
610,32	7,36
610,57	17,36
610,83	-0,64
611,09	11,36
611,35	-4,64
611,60	-14,64
611,86	13,36
612,12	8,36
612,37	8,36
612,63	6,36
612,89	12,36
613,15	0,36
613,40	14,36
613,66	0,36
613,92	-3,64
614,17	16,36
614,43	1,36
614,69	-13,64
614,94	-5,64
615,20	7,36
615,46	11,36
615,72	-10,64
615,97	-9,64
616,23	1,36
616,49	22,36
616,74	12,36
617,00	0,36
617,26	-9,64
617,51	-0,64
617,77	18,36
618,03	3,36
618,28	1,36
618,54	-20,64
618,80	12,36
619,05	4,36
619,31	20,36
619,57	-0,64
619,83	7,36
620,08	14,36
620,34	12,36
620,60	-9,64
620,85	-4,64
621,11	-2,64
621,37	-6,64
621,62	14,36
621,88	17,36
622,14	-8,64
622,39	7,36
622,65	12,36
622,91	23,36
623,16	-0,64
623,42	-2,64
623,68	12,36
623,93	19,36
624,19	14,36
624,45	8,36
624,70	10,36
624,96	2,36
625,22	-6,64
625,47	-14,64
625,73	-2,64
625,99	8,36
626,24	4,36
626,50	-0,64
626,76	11,36
627,01	23,36
627,27	15,36
627,53	-8,64
627,78	2,36
628,04	-8,64
628,30	3,36
628,55	6,36
628,81	-2,64
629,07	-7,64
629,32	-12,64
629,58	11,36
629,83	16,36
630,09	-4,64
630,35	-2,64
630,60	8,36
630,86	11,36
631,12	8,36
631,37	2,36
631,63	2,36
631,89	10,36
632,14	-3,64
632,40	-8,64
632,66	-1,64
632,91	-3,64
633,17	-2,64
633,42	4,36
633,68	-6,64
633,94	15,36
634,19	-21,64
634,45	-1,64
634,71	18,36
634,96	-4,64
635,22	5,36
635,48	-7,64
635,73	9,36
635,99	-3,64
636,24	-11,64
636,50	20,36
636,76	19,36
637,01	8,36
637,27	19,36
637,53	0,36
637,78	5,36
638,04	20,36
638,29	17,36
638,55	2,36
638,81	-12,64
639,06	12,36
639,32	10,36
639,57	4,36
639,83	-8,64
640,09	-10,64
640,34	6,36
640,60	-6,64
640,86	4,36
641,11	-13,64
641,37	19,36
641,62	10,36
641,88	-3,64
642,14	-0,64
642,39	-0,64
642,65	1,36
642,90	7,36
643,16	-1,64
643,42	-5,64
643,67	1,36
643,93	6,36
644,18	5,36
644,44	-1,64
644,70	21,36
644,95	-5,64
645,21	-7,64
645,46	-14,64
645,72	-8,64
645,98	14,36
646,23	-1,64
646,49	-0,64
646,74	15,36
647,00	-8,64
647,26	-6,64
647,51	0,36
647,77	4,36
648,02	36,36
648,28	1,36
648,54	0,36
648,79	-1,64
649,05	0,36
649,30	-5,64
649,56	2,36
649,81	-26,64
650,07	-1,64
650,33	-0,64
650,58	7,36
650,84	3,36
651,09	11,36
651,35	0,36
651,60	5,36
651,86	5,36
652,12	-2,64
652,37	21,36
652,63	-0,64
652,88	7,36
653,14	8,36
653,39	18,36
653,65	9,36
653,91	11,36
654,16	3,36
654,42	-1,64
654,67	6,36
654,93	-3,64
655,18	13,36
655,44	-1,64
655,70	23,36
655,95	11,36
656,21	11,36
656,46	17,36
656,72	9,36
656,97	7,36
657,23	-10,64
657,49	-6,64
657,74	-3,64
658,00	13,36
658,25	0,36
658,51	6,36
658,76	-0,64
659,02	8,36
659,27	-22,64
659,53	0,36
659,78	-1,64
660,04	0,36
660,30	15,36
660,55	3,36
660,81	3,36
661,06	-0,64
661,32	-25,64
661,57	0,36
661,83	27,36
662,08	10,36
662,34	2,36
662,59	9,36
662,85	15,36
663,11	3,36
663,36	9,36
663,62	-9,64
663,87	-2,64
664,13	4,36
664,38	-1,64
664,64	-25,64
664,89	2,36
665,15	10,36
665,40	6,36
665,66	1,36
665,91	-5,64
666,17	-24,64
666,42	4,36
666,68	5,36
666,93	-5,64
667,19	11,36
667,45	-15,64
667,70	-7,64
667,96	-4,64
668,21	9,36
668,47	7,36
668,72	3,36
668,98	-2,64
669,23	0,36
669,49	-17,64
669,74	-8,64
670,00	-3,64
670,25	0,36
670,51	-15,64
670,76	6,36
671,02	16,36
671,27	22,36
671,53	6,36
671,78	0,36
672,04	-15,64
672,29	3,36
672,55	15,36
672,80	-9,64
673,06	10,36
673,31	3,36
673,57	-6,64
673,82	5,36
674,08	-14,64
674,33	-20,64
674,59	1,36
674,84	9,36
675,10	-2,64
675,35	19,36
675,61	-4,64
675,86	-2,64
676,12	10,36
676,37	10,36
676,63	12,36
676,88	-0,64
677,14	9,36
677,39	-4,64
677,65	-1,64
677,90	-18,64
678,16	15,36
678,41	-13,64
678,67	-12,64
678,92	6,36
679,18	-9,64
679,43	5,36
679,69	6,36
679,94	2,36
680,20	1,36
680,45	8,36
680,71	2,36
680,96	-11,64
681,21	-15,64
681,47	-24,64
681,72	-8,64
681,98	-15,64
682,23	5,36
682,49	3,36
682,74	0,36
683,00	-2,64
683,25	16,36
683,51	0,36
683,76	13,36
684,02	-1,64
684,27	-6,64
684,53	8,36
684,78	15,36
685,04	-3,64
685,29	-2,64
685,54	6,36
685,80	9,36
686,05	11,36
686,31	7,36
686,56	4,36
686,82	7,36
687,07	13,36
687,33	16,36
687,58	-1,64
687,84	-5,64
688,09	-13,64
688,34	-7,64
688,60	-10,64
688,85	12,36
689,11	40,36
689,36	26,36
689,62	25,36
689,87	7,36
690,13	9,36
690,38	-10,64
690,64	-0,64
690,89	-0,64
691,14	1,36
691,40	-15,64
691,65	-24,64
691,91	-6,64
692,16	-13,64
692,42	7,36
692,67	7,36
692,92	11,36
693,18	17,36
693,43	16,36
693,69	19,36
693,94	4,36
694,20	25,36
694,45	28,36
694,71	64,36
694,96	65,36
695,21	71,36
695,47	72,36
695,72	51,36
695,98	37,36
696,23	-9,64
696,48	-3,64
696,74	7,36
696,99	-2,64
697,25	11,36
697,50	9,36
697,76	-0,64
698,01	13,36
698,26	-5,64
698,52	5,36
698,77	30,36
699,03	6,36
699,28	-0,64
699,54	4,36
699,79	14,36
700,04	4,36
700,30	-12,64
700,55	16,36
700,81	11,36
701,06	-4,64
701,31	3,36
701,57	-9,64
701,82	14,36
702,08	30,36
702,33	12,36
702,58	-0,64
702,84	28,36
703,09	22,36
703,35	30,36
703,60	23,36
703,85	39,36
704,11	39,36
704,36	75,36
704,62	97,36
704,87	147,36
705,12	170,36
705,38	170,36
705,63	162,36
705,89	141,36
706,14	82,36
706,39	77,36
706,65	86,36
706,90	82,36
707,16	68,36
707,41	60,36
707,66	72,36
707,92	38,36
708,17	53,36
708,42	23,36
708,68	21,36
708,93	8,36
709,19	21,36
709,44	15,36
709,69	15,36
709,95	36,36
710,20	25,36
710,46	8,36
710,71	25,36
710,96	29,36
711,22	26,36
711,47	39,36
711,72	42,36
711,98	14,36
712,23	23,36
712,48	23,36
712,74	43,36
712,99	14,36
713,25	54,36
713,50	30,36
713,75	35,36
714,01	12,36
714,26	7,36
714,51	24,36
714,77	18,36
715,02	-1,64
715,28	9,36
715,53	11,36
715,78	-10,64
716,04	-13,64
716,29	12,36
716,54	14,36
716,80	-3,64
717,05	3,36
717,30	9,36
717,56	9,36
717,81	-16,64
718,06	-4,64
718,32	9,36
718,57	-1,64
718,82	-8,64
719,08	11,36
719,33	-2,64
719,58	5,36
719,84	9,36
720,09	-4,64
720,35	4,36
720,60	8,36
720,85	-13,64
721,11	5,36
721,36	-7,64
721,61	4,36
721,87	-3,64
722,12	11,36
722,37	-16,64
722,63	9,36
722,88	14,36
723,13	19,36
723,39	-7,64
723,64	0,36
723,89	-2,64
724,15	9,36
724,40	1,36
724,65	11,36
724,91	34,36
725,16	79,36
725,41	75,36
725,67	79,36
725,92	98,36
726,17	81,36
726,42	38,36
726,68	32,36
726,93	24,36
727,18	24,36
727,44	28,36
727,69	7,36
727,94	5,36
728,20	5,36
728,45	-5,64
728,70	1,36
728,96	8,36
729,21	1,36
729,46	14,36
729,72	15,36
729,97	7,36
730,22	14,36
730,48	13,36
730,73	6,36
730,98	-5,64
731,23	-19,64
731,49	4,36
731,74	-3,64
731,99	3,36
732,25	-13,64
732,50	2,36
732,75	-4,64
733,01	-6,64
733,26	-9,64
733,51	22,36
733,76	16,36
734,02	31,36
734,27	24,36
734,52	25,36
734,78	27,36
735,03	27,36
735,28	44,36
735,54	95,36
735,79	200,36
736,04	319,36
736,29	415,36
736,55	522,36
736,80	598,36
737,05	585,36
737,31	509,36
737,56	379,36
737,81	218,36
738,06	98,36
738,32	52,36
738,57	7,36
738,82	22,36
739,07	14,36
739,33	8,36
739,58	11,36
739,83	16,36
740,09	1,36
740,34	4,36
740,59	8,36
740,84	25,36
741,10	10,36
741,35	2,36
741,60	19,36
741,86	10,36
742,11	7,36
742,36	28,36
742,61	8,36
742,87	-2,64
743,12	-0,64
743,37	15,36
743,62	9,36
743,88	9,36
744,13	2,36
744,38	15,36
744,63	10,36
744,89	1,36
745,14	14,36
745,39	13,36
745,64	30,36
745,90	8,36
746,15	12,36
746,40	0,36
746,65	-3,64
746,91	16,36
747,16	47,36
747,41	29,36
747,66	85,36
747,92	246,36
748,17	357,36
748,42	490,36
748,67	592,36
748,93	713,36
749,18	838,36
749,43	918,36
749,68	886,36
749,94	820,36
750,19	693,36
750,44	540,36
750,69	367,36
750,95	197,36
751,20	89,36
751,45	61,36
751,70	15,36
751,96	30,36
752,21	2,36
752,46	29,36
752,71	11,36
752,96	-0,64
753,22	16,36
753,47	-7,64
753,72	-3,64
753,97	-2,64
754,23	0,36
754,48	1,36
754,73	12,36
754,98	20,36
755,24	5,36
755,49	21,36
755,74	24,36
755,99	16,36
756,24	7,36
756,50	35,36
756,75	-3,64
757,00	6,36
757,25	16,36
757,50	29,36
757,76	10,36
758,01	17,36
758,26	18,36
758,51	15,36
758,77	24,36
759,02	33,36
759,27	31,36
759,52	37,36
759,77	39,36
760,03	46,36
760,28	119,36
760,53	213,36
760,78	495,36
761,03	1015,36
761,29	1627,36
761,54	2146,36
761,79	2346,36
762,04	2310,36
762,29	2098,36
762,55	1609,36
762,80	1112,36
763,05	555,36
763,30	276,36
763,55	132,36
763,81	68,36
764,06	56,36
764,31	25,36
764,56	27,36
764,81	22,36
765,07	42,36
765,32	21,36
765,57	16,36
765,82	20,36
766,07	3,36
766,32	6,36
766,58	-2,64
766,83	30,36
767,08	24,36
767,33	13,36
767,58	-8,64
767,84	13,36
768,09	2,36
768,34	-1,64
768,59	14,36
768,84	16,36
769,09	31,36
769,35	43,36
769,60	90,36
769,85	253,36
770,10	422,36
770,35	568,36
770,60	673,36
770,86	701,36
771,11	662,36
771,36	533,36
771,61	363,36
771,86	230,36
772,11	127,36
772,37	75,36
772,62	44,36
772,87	20,36
773,12	26,36
773,37	10,36
773,62	18,36
773,88	27,36
774,13	-5,64
774,38	4,36
774,63	2,36
774,88	9,36
775,13	-1,64
775,38	16,36
775,64	8,36
775,89	-2,64
776,14	15,36
776,39	9,36
776,64	2,36
776,89	10,36
777,15	-1,64
777,40	13,36
777,65	-2,64
777,90	5,36
778,15	4,36
778,40	26,36
778,65	11,36
778,91	18,36
779,16	6,36
779,41	12,36
779,66	-14,64
779,91	19,36
780,16	26,36
780,41	-9,64
780,66	7,36
780,92	7,36
781,17	10,36
781,42	4,36
781,67	-0,64
781,92	-6,64
782,17	-11,64
782,42	12,36
782,68	5,36
782,93	-8,64
783,18	-6,64
783,43	19,36
783,68	-6,64
783,93	-3,64
784,18	-9,64
784,43	1,36
784,69	-0,64
784,94	6,36
785,19	-9,64
785,44	10,36
785,69	1,36
785,94	18,36
786,19	-6,64
786,44	-7,64
786,69	0,36
786,95	9,36
787,20	8,36
787,45	8,36
787,70	17,36
787,95	15,36
788,20	6,36
788,45	-4,64
788,70	-2,64
788,95	33,36
789,21	17,36
789,46	2,36
789,71	-0,64
789,96	9,36
790,21	33,36
790,46	24,36
790,71	26,36
790,96	11,36
791,21	17,36
791,46	23,36
791,72	31,36
791,97	83,36
792,22	165,36
792,47	274,36
792,72	452,36
792,97	507,36
793,22	531,36
793,47	462,36
793,72	400,36
793,97	271,36
794,22	173,36
794,47	86,36
794,73	39,36
794,98	29,36
795,23	22,36
795,48	29,36
795,73	33,36
795,98	34,36
796,23	24,36
796,48	19,36
796,73	19,36
796,98	20,36
797,23	26,36
797,48	44,36
797,74	46,36
797,99	100,36
798,24	202,36
798,49	330,36
798,74	440,36
798,99	587,36
799,24	811,36
799,49	907,36
799,74	926,36
799,99	779,36
800,24	638,36
800,49	479,36
800,74	355,36
800,99	220,36
801,24	106,36
801,50	66,36
801,75	36,36
802,00	25,36
802,25	34,36
802,50	10,36
802,75	13,36
803,00	26,36
803,25	15,36
803,50	20,36
803,75	36,36
804,00	21,36
804,25	12,36
804,50	19,36
804,75	7,36
805,00	17,36
805,25	17,36
805,50	3,36
805,75	18,36
806,00	29,36
806,26	33,36
806,51	30,36
806,76	52,36
807,01	45,36
807,26	57,36
807,51	125,36
807,76	231,36
808,01	495,36
808,26	730,36
808,51	944,36
808,76	1131,36
809,01	1618,36
809,26	2464,36
809,51	3081,36
809,76	3327,36
810,01	2939,36
810,26	2421,36
810,51	1900,36
810,76	1374,36
811,01	869,36
811,26	485,36
811,51	242,36
811,76	149,36
812,01	107,36
812,26	57,36
812,51	48,36
812,76	29,36
813,01	37,36
813,26	14,36
813,51	34,36
813,76	19,36
814,01	25,36
814,26	36,36
814,51	19,36
814,76	28,36
815,02	14,36
815,27	-0,64
815,52	22,36
815,77	4,36
816,02	8,36
816,27	10,36
816,52	-2,64
816,77	10,36
817,02	14,36
817,27	14,36
817,52	17,36
817,77	1,36
818,02	3,36
818,27	13,36
818,52	0,36
818,77	4,36
819,02	2,36
819,27	4,36
819,52	35,36
819,77	8,36
820,02	2,36
820,27	18,36
820,52	-3,64
820,77	9,36
821,02	22,36
821,27	0,36
821,52	11,36
821,77	32,36
822,02	15,36
822,26	8,36
822,51	-6,64
822,76	-7,64
823,01	8,36
823,26	16,36
823,51	20,36
823,76	39,36
824,01	118,36
824,26	181,36
824,51	272,36
824,76	260,36
825,01	225,36
825,26	162,36
825,51	130,36
825,76	90,36
826,01	75,36
826,26	40,36
826,51	39,36
826,76	16,36
827,01	14,36
827,26	10,36
827,51	-4,64
827,76	9,36
828,01	9,36
828,26	3,36
828,51	-3,64
828,76	19,36
829,01	7,36
829,26	-0,64
829,51	-7,64
829,76	27,36
830,01	32,36
830,26	2,36
830,51	2,36
830,76	0,36
831,00	3,36
831,25	4,36
831,50	6,36
831,75	-5,64
832,00	16,36
832,25	-11,64
832,50	-5,64
832,75	6,36
833,00	11,36
833,25	-13,64
833,50	3,36
833,75	14,36
834,00	11,36
834,25	8,36
834,50	18,36
834,75	6,36
835,00	7,36
835,25	11,36
835,50	0,36
835,74	14,36
835,99	-16,64
836,24	13,36
836,49	7,36
836,74	18,36
836,99	7,36
837,24	12,36
837,49	10,36
837,74	3,36
837,99	35,36
838,24	97,36
838,49	230,36
838,74	341,36
838,99	386,36
839,24	348,36
839,48	327,36
839,73	330,36
839,98	444,36
840,23	641,36
840,48	775,36
840,73	827,36
840,98	741,36
841,23	538,36
841,48	419,36
841,73	312,36
841,98	212,36
842,23	123,36
842,48	72,36
842,72	39,36
842,97	29,36
843,22	21,36
843,47	16,36
843,72	10,36
843,97	18,36
844,22	44,36
844,47	3,36
844,72	14,36
844,97	13,36
845,22	13,36
845,46	5,36
845,71	24,36
845,96	22,36
846,21	14,36
846,46	14,36
846,71	11,36
846,96	9,36
847,21	11,36
847,46	-6,64
847,71	17,36
847,95	20,36
848,20	16,36
848,45	21,36
848,70	24,36
848,95	10,36
849,20	7,36
849,45	52,36
849,70	82,36
849,95	115,36
850,19	160,36
850,44	157,36
850,69	147,36
850,94	104,36
851,19	84,36
851,44	58,36
851,69	16,36
851,94	33,36
852,19	28,36
852,43	-2,64
852,68	7,36
852,93	18,36
853,18	16,36
853,43	7,36
853,68	-0,64
853,93	-2,64
854,18	-4,64
854,42	-9,64
854,67	-0,64
854,92	-1,64
855,17	7,36
855,42	-11,64
855,67	-6,64
855,92	21,36
856,16	9,36
856,41	4,36
856,66	-8,64
856,91	-14,64
857,16	-4,64
857,41	7,36
857,66	13,36
857,91	-4,64
858,15	11,36
858,40	-0,64
858,65	-11,64
858,90	-10,64
859,15	1,36
859,40	3,36
859,65	3,36
859,89	16,36
860,14	15,36
860,39	10,36
860,64	-4,64
860,89	26,36
861,14	12,36
861,38	19,36
861,63	14,36
861,88	12,36
862,13	-5,64
862,38	13,36
862,63	4,36
862,88	18,36
863,12	-13,64
863,37	5,36
863,62	14,36
863,87	1,36
864,12	16,36
864,37	13,36
864,61	21,36
864,86	21,36
865,11	37,36
865,36	24,36
865,61	21,36
865,86	32,36
866,10	1,36
866,35	10,36
866,60	0,36
866,85	-0,64
867,10	20,36
867,35	9,36
867,59	-5,64
867,84	22,36
868,09	17,36
868,34	5,36
868,59	0,36
868,83	3,36
869,08	-1,64
869,33	15,36
869,58	17,36
869,83	20,36
870,08	8,36
870,32	-13,64
870,57	-4,64
870,82	-3,64
871,07	10,36
871,32	-3,64
871,56	7,36
871,81	17,36
872,06	-8,64
872,31	4,36
872,56	2,36
872,81	4,36
873,05	-13,64
873,30	2,36
873,55	-2,64
873,80	7,36
874,05	34,36
874,29	2,36
874,54	-4,64
874,79	-2,64
875,04	8,36
875,29	-2,64
875,53	-9,64
875,78	6,36
876,03	12,36
876,28	4,36
876,52	22,36
876,77	2,36
877,02	-0,64
877,27	3,36
877,52	11,36
877,76	16,36
878,01	8,36
878,26	4,36
878,51	10,36
878,76	11,36
879,00	-14,64
879,25	0,36
879,50	5,36
879,75	-3,64
880,00	-4,64
880,24	-3,64
880,49	9,36
880,74	-0,64
880,99	-0,64
881,23	-2,64
881,48	0,36
881,73	-9,64
881,98	-2,64
882,22	-15,64
882,47	-14,64
882,72	-16,64
882,97	4,36
883,22	2,36
883,46	-6,64
883,71	1,36
883,96	-7,64
884,21	-2,64
884,45	0,36
884,70	-2,64
884,95	-9,64
885,20	0,36
885,44	1,36
885,69	-3,64
885,94	3,36
886,19	1,36
886,43	3,36
886,68	5,36
886,93	16,36
887,18	17,36
887,42	7,36
887,67	7,36
887,92	0,36
888,17	8,36
888,42	7,36
888,66	2,36
888,91	-6,64
889,16	-15,64
889,40	5,36
889,65	2,36
889,90	-3,64
890,15	-12,64
890,39	-7,64
890,64	-2,64
890,89	3,36
891,14	-2,64
891,38	-2,64
891,63	0,36
891,88	23,36
892,13	4,36
892,37	-1,64
892,62	18,36
892,87	14,36
893,12	3,36
893,36	8,36
893,61	-4,64
893,86	5,36
894,11	13,36
894,35	17,36
894,60	4,36
894,85	0,36
895,09	6,36
895,34	-1,64
895,59	14,36
895,84	3,36
896,08	2,36
896,33	1,36
896,58	7,36
896,82	8,36
897,07	19,36
897,32	-3,64
897,57	17,36
897,81	-14,64
898,06	-5,64
898,31	-23,64
898,55	17,36
898,80	10,36
899,05	-5,64
899,30	-7,64
899,54	-4,64
899,79	1,36
900,04	-1,64
900,28	28,36
900,53	5,36
900,78	7,36
901,03	12,36
901,27	5,36
901,52	-8,64
901,77	5,36
902,01	1,36
902,26	3,36
902,51	2,36
902,75	-0,64
903,00	-10,64
903,25	-15,64
903,50	-3,64
903,74	1,36
903,99	1,36
904,24	24,36
904,48	2,36
904,73	-5,64
904,98	10,36
905,22	30,36
905,47	25,36
905,72	12,36
905,96	13,36
906,21	22,36
906,46	12,36
906,70	-5,64
906,95	3,36
907,20	10,36
907,45	-12,64
907,69	4,36
907,94	-1,64
908,19	13,36
908,43	6,36
908,68	9,36
908,93	19,36
909,17	8,36
909,42	28,36
909,67	70,36
909,91	156,36
910,16	256,36
910,41	341,36
910,65	349,36
910,90	306,36
911,15	236,36
911,39	163,36
911,64	112,36
911,89	104,36
912,13	67,36
912,38	48,36
912,63	35,36
912,87	22,36
913,12	24,36
913,37	9,36
913,61	11,36
913,86	-0,64
914,11	13,36
914,35	1,36
914,60	18,36
914,85	14,36
915,09	8,36
915,34	-2,64
915,58	-8,64
915,83	-14,64
916,08	-6,64
916,32	22,36
916,57	-0,64
916,82	-7,64
917,06	22,36
917,31	-2,64
917,56	27,36
917,80	-3,64
918,05	-5,64
918,30	35,36
918,54	6,36
918,79	-0,64
919,04	3,36
919,28	12,36
919,53	8,36
919,77	27,36
920,02	12,36
920,27	46,36
920,51	62,36
920,76	38,36
921,01	56,36
921,25	41,36
921,50	9,36
921,74	14,36
921,99	10,36
922,24	8,36
922,48	14,36
922,73	2,36
922,98	4,36
923,22	-2,64
923,47	13,36
923,71	-4,64
923,96	-5,64
924,21	-14,64
924,45	15,36
924,70	14,36
924,95	14,36
925,19	19,36
925,44	-0,64
925,68	8,36
925,93	9,36
926,18	13,36
926,42	9,36
926,67	-4,64
926,91	-21,64
927,16	-19,64
927,41	-16,64
927,65	-19,64
927,90	-14,64
928,14	3,36
928,39	-4,64
928,64	21,36
928,88	-20,64
929,13	6,36
929,37	-7,64
929,62	1,36
929,87	6,36
930,11	3,36
930,36	-21,64
930,60	12,36
930,85	12,36
931,10	25,36
931,34	4,36
931,59	-4,64
931,83	1,36
932,08	27,36
932,33	2,36
932,57	3,36
932,82	18,36
933,06	3,36
933,31	-9,64
933,56	-16,64
933,80	-11,64
934,05	10,36
934,29	0,36
934,54	-11,64
934,78	-0,64
935,03	12,36
935,28	2,36
935,52	15,36
935,77	7,36
936,01	-2,64
936,26	-14,64
936,51	-16,64
936,75	0,36
937,00	6,36
937,24	-0,64
937,49	5,36
937,73	-5,64
937,98	0,36
938,22	-2,64
938,47	6,36
938,72	15,36
938,96	-0,64
939,21	-0,64
939,45	-6,64
939,70	15,36
939,94	-0,64
940,19	7,36
940,44	5,36
940,68	-13,64
940,93	-12,64
941,17	-6,64
941,42	3,36
941,66	-6,64
941,91	7,36
942,15	15,36
942,40	13,36
942,65	2,36
942,89	2,36
943,14	-4,64
943,38	-9,64
943,63	9,36
943,87	-12,64
944,12	-3,64
944,36	7,36
944,61	-12,64
944,85	-11,64
945,10	-22,64
945,35	9,36
945,59	-23,64
945,84	2,36
946,08	4,36
946,33	-0,64
946,57	-23,64
946,82	2,36
947,06	-3,64
947,31	8,36
947,55	3,36
947,80	5,36
948,04	12,36
948,29	-5,64
948,54	-8,64
948,78	-6,64
949,03	6,36
949,27	3,36
949,52	-9,64
949,76	-9,64
950,01	-5,64
950,25	19,36
950,50	12,36
950,74	4,36
950,99	-6,64
951,23	10,36
951,48	8,36
951,72	18,36
951,97	-5,64
952,21	-8,64
952,46	-0,64
952,70	3,36
952,95	19,36
953,19	-6,64
953,44	4,36
953,68	-2,64
953,93	18,36
954,17	20,36
954,42	-5,64
954,66	15,36
954,91	-5,64
955,15	16,36
955,40	-9,64
955,64	1,36
955,89	2,36
956,13	-3,64
956,38	-4,64
956,62	-1,64
956,87	-9,64
957,11	4,36
957,36	-2,64
957,60	-5,64
957,85	14,36
958,09	-2,64
958,34	3,36
958,58	-7,64
958,83	-20,64
959,07	0,36
959,32	-30,64
959,56	-3,64
959,81	10,36
960,05	-5,64
960,30	5,36
960,54	-18,64
960,79	3,36
961,03	2,36
961,28	-5,64
961,52	-13,64
961,77	-4,64
962,01	5,36
962,26	-20,64
962,50	-0,64
962,75	12,36
962,99	-4,64
963,24	-11,64
963,48	11,36
963,73	18,36
963,97	26,36
964,21	18,36
964,46	33,36
964,70	18,36
964,95	21,36
965,19	19,36
965,44	39,36
965,68	16,36
965,93	16,36
966,17	12,36
966,42	4,36
966,66	6,36
966,91	-3,64
967,15	0,36
967,40	10,36
967,64	-6,64
967,88	2,36
968,13	1,36
968,37	-16,64
968,62	-21,64
968,86	14,36
969,11	12,36
969,35	-11,64
969,60	-17,64
969,84	20,36
970,09	19,36
970,33	1,36
970,57	1,36
970,82	0,36
971,06	-6,64
971,31	21,36
971,55	-5,64
971,80	6,36
972,04	1,36
972,29	18,36
972,53	12,36
972,77	7,36
973,02	-4,64
973,26	-5,64
973,51	8,36
973,75	-13,64
974,00	-10,64
974,24	-7,64
974,48	-5,64
974,73	-20,64
974,97	-3,64
975,22	0,36
975,46	1,36
975,71	14,36
975,95	-9,64
976,19	-10,64
976,44	6,36
976,68	16,36
976,93	5,36
977,17	27,36
977,42	7,36
977,66	-1,64
977,90	0,36
978,15	10,36
978,39	-10,64
978,64	5,36
978,88	1,36
979,12	17,36
979,37	10,36
979,61	8,36
979,86	-1,64
980,10	5,36
980,35	-0,64
980,59	1,36
980,83	-16,64
981,08	5,36
981,32	-2,64
981,57	1,36
981,81	13,36
982,05	-11,64
982,30	-31,64
982,54	-6,64
982,79	2,36
983,03	13,36
983,27	19,36
983,52	-5,64
983,76	27,36
984,01	16,36
984,25	12,36
984,49	12,36
984,74	9,36
984,98	2,36
985,23	-8,64
985,47	8,36
985,71	13,36
985,96	1,36
986,20	-15,64
986,45	0,36
986,69	0,36
986,93	9,36
987,18	-2,64
987,42	8,36
987,66	16,36
987,91	6,36
988,15	2,36
988,40	-3,64
988,64	-2,64
988,88	8,36
989,13	5,36
989,37	20,36
989,61	-12,64
989,86	0,36
990,10	-16,64
990,35	-11,64
990,59	17,36
990,83	8,36
991,08	-2,64
991,32	1,36
991,56	4,36
991,81	-7,64
992,05	17,36
992,30	3,36
992,54	-16,64
992,78	-22,64
993,03	6,36
993,27	-7,64
993,51	4,36
993,76	4,36
994,00	-8,64
994,24	-1,64
994,49	-3,64
994,73	0,36
994,98	-3,64
995,22	-4,64
995,46	-8,64
995,71	-2,64
995,95	-5,64
996,19	-3,64
996,44	0,36
996,68	7,36
996,92	-6,64
997,17	18,36
997,41	18,36
997,65	6,36
997,90	17,36
998,14	28,36
998,38	4,36
998,63	14,36
998,87	-4,64
999,11	13,36
999,36	18,36
999,60	7,36
999,84	11,36
1000,09	23,36
1000,33	3,36
1000,57	-20,64
1000,82	-5,64
1001,06	-15,64
1001,30	-9,64
1001,55	-11,64
1001,79	-9,64
1002,03	0,36
1002,28	-3,64
1002,52	-21,64
1002,76	-4,64
1003,01	-1,64
1003,25	-11,64
1003,49	-10,64
1003,74	9,36
1003,98	-8,64
1004,22	-11,64
1004,47	20,36
1004,71	-9,64
1004,95	6,36
1005,20	-12,64
1005,44	1,36
1005,68	-2,64
1005,93	-20,64
1006,17	-17,64
1006,41	-13,64
1006,66	-5,64
1006,90	-14,64
1007,14	-1,64
1007,38	16,36
1007,63	7,36
1007,87	-9,64
1008,11	-3,64
1008,36	-9,64
1008,60	0,36
1008,84	-6,64
1009,09	-18,64
1009,33	-9,64
1009,57	1,36
1009,81	16,36
1010,06	12,36
1010,30	-13,64
1010,54	-6,64
1010,79	3,36
1011,03	6,36
1011,27	-15,64
1011,52	15,36
1011,76	18,36
1012,00	5,36
1012,24	23,36
1012,49	16,36
1012,73	29,36
1012,97	42,36
1013,22	22,36
1013,46	36,36
1013,70	16,36
1013,94	13,36
1014,19	20,36
1014,43	17,36
1014,67	8,36
1014,92	20,36
1015,16	15,36
1015,40	14,36
1015,64	-10,64
1015,89	19,36
1016,13	9,36
1016,37	-1,64
1016,62	-5,64
1016,86	-15,64
1017,10	4,36
1017,34	-19,64
1017,59	-4,64
1017,83	-10,64
1018,07	-1,64
1018,31	13,36
1018,56	12,36
1018,80	0,36
1019,04	-4,64
1019,28	-6,64
1019,53	-1,64
1019,77	-1,64
1020,01	13,36
1020,26	-2,64
1020,50	4,36
1020,74	4,36
1020,98	-0,64
1021,23	8,36
1021,47	3,36
1021,71	7,36
1021,95	9,36
1022,20	-13,64
1022,44	6,36
1022,68	-10,64
1022,92	9,36
1023,17	7,36
1023,41	3,36
1023,65	-14,64
1023,89	-0,64
1024,14	13,36
1024,38	3,36
1024,62	-5,64
1024,86	-1,64
1025,11	18,36
1025,35	2,36
1025,59	15,36
1025,83	4,36
1026,07	8,36
1026,32	7,36
1026,56	-12,64
1026,80	-6,64
1027,04	-4,64
1027,29	27,36
1027,53	9,36
1027,77	10,36
1028,01	-2,64
1028,26	-10,64
1028,50	0,36
1028,74	-5,64
1028,98	19,36
1029,22	2,36
1029,47	-3,64
1029,71	-9,64
1029,95	-16,64
1030,19	-8,64
1030,44	4,36
1030,68	6,36
1030,92	7,36
1031,16	-7,64
1031,40	0,36
1031,65	-12,64
1031,89	-7,64
1032,13	1,36
1032,37	-6,64
1032,62	-7,64
1032,86	-13,64
1033,10	-23,64
1033,34	-3,64
1033,58	-0,64
1033,83	5,36
1034,07	4,36
1034,31	1,36
1034,55	8,36
1034,79	20,36
1035,04	10,36
1035,28	17,36
1035,52	6,36
1035,76	9,36
1036,00	-4,64
1036,25	16,36
1036,49	13,36
1036,73	8,36
1036,97	8,36
1037,21	21,36
1037,46	-8,64
1037,70	13,36
1037,94	1,36
1038,18	0,36
1038,42	0,36
1038,67	-16,64
1038,91	11,36
1039,15	3,36
1039,39	-14,64
1039,63	4,36
1039,88	-3,64
1040,12	12,36
1040,36	-2,64
1040,60	-4,64
1040,84	14,36
1041,08	13,36
1041,33	25,36
1041,57	10,36
1041,81	9,36
1042,05	12,36
1042,29	-3,64
1042,53	5,36
1042,78	8,36
1043,02	-0,64
1043,26	-10,64
1043,50	9,36
1043,74	-2,64
1043,99	-6,64
1044,23	-3,64
1044,47	-21,64
1044,71	0,36
1044,95	-18,64
1045,19	5,36
1045,44	-9,64
1045,68	-4,64
1045,92	2,36
1046,16	-7,64
1046,40	-1,64
1046,64	-4,64
1046,88	17,36
1047,13	-3,64
1047,37	14,36
1047,61	9,36
1047,85	4,36
1048,09	-10,64
1048,33	-12,64
1048,58	-16,64
1048,82	-27,64
1049,06	11,36
1049,30	-5,64
1049,54	-8,64
1049,78	-17,64
1050,02	5,36
1050,27	-9,64
1050,51	-11,64
1050,75	14,36
1050,99	-0,64
1051,23	9,36
1051,47	9,36
1051,71	-4,64
1051,96	-2,64
1052,20	19,36
1052,44	12,36
1052,68	-10,64
1052,92	-4,64
1053,16	-20,64
1053,40	10,36
1053,65	4,36
1053,89	-9,64
1054,13	4,36
1054,37	-3,64
1054,61	-22,64
1054,85	18,36
1055,09	0,36
1055,33	-6,64
1055,58	-20,64
1055,82	-6,64
1056,06	14,36
1056,30	13,36
1056,54	-2,64
1056,78	1,36
1057,02	-1,64
1057,26	2,36
1057,51	15,36
1057,75	22,36
1057,99	11,36
1058,23	10,36
1058,47	20,36
1058,71	0,36
1058,95	6,36
1059,19	7,36
1059,43	-1,64
1059,68	31,36
1059,92	3,36
1060,16	-22,64
1060,40	14,36
1060,64	-1,64
1060,88	8,36
1061,12	4,36
1061,36	7,36
1061,60	10,36
1061,84	-6,64
1062,09	-11,64
1062,33	-1,64
1062,57	-1,64
1062,81	-7,64
1063,05	13,36
1063,29	13,36
1063,53	-2,64
1063,77	-3,64
1064,01	-5,64
1064,25	-19,64
1064,50	-6,64
1064,74	-2,64
1064,98	-1,64
1065,22	-7,64
1065,46	-5,64
1065,70	4,36
1065,94	4,36
1066,18	-2,64
1066,42	-3,64
1066,66	-7,64
1066,90	6,36
1067,14	-6,64
1067,39	3,36
1067,63	-4,64
1067,87	16,36
1068,11	-3,64
1068,35	16,36
1068,59	29,36
1068,83	9,36
1069,07	-7,64
1069,31	-15,64
1069,55	5,36
1069,79	-5,64
1070,03	8,36
1070,27	3,36
1070,52	0,36
1070,76	26,36
1071,00	18,36
1071,24	14,36
1071,48	-7,64
1071,72	8,36
1071,96	18,36
1072,20	-1,64
1072,44	-15,64
1072,68	16,36
1072,92	-10,64
1073,16	-6,64
1073,40	-10,64
1073,64	1,36
1073,88	8,36
1074,12	11,36
1074,36	2,36
1074,61	2,36
1074,85	-9,64
1075,09	-35,64
1075,33	-19,64
1075,57	9,36
1075,81	-10,64
1076,05	3,36
1076,29	18,36
1076,53	17,36
1076,77	7,36
1077,01	1,36
1077,25	4,36
1077,49	-4,64
1077,73	5,36
1077,97	-7,64
1078,21	9,36
1078,45	3,36
1078,69	3,36
1078,93	-19,64
1079,17	10,36
1079,41	11,36
1079,65	10,36
1079,89	-0,64
1080,13	-21,64
1080,37	-10,64
1080,61	5,36
1080,86	-1,64
1081,10	6,36
1081,34	-2,64
1081,58	-4,64
1081,82	8,36
1082,06	-5,64
1082,30	-9,64
1082,54	14,36
1082,78	-0,64
1083,02	13,36
1083,26	10,36
1083,50	15,36
1083,74	-5,64
1083,98	0,36
1084,22	-15,64
1084,46	-13,64
1084,70	12,36
1084,94	7,36
1085,18	1,36
1085,42	6,36
1085,66	-6,64
1085,90	-15,64
1086,14	-6,64
1086,38	-14,64
1086,62	21,36
1086,86	-3,64
1087,10	-7,64
1087,34	-1,64
1087,58	-8,64
1087,82	2,36
1088,06	12,36
1088,30	-0,64
1088,54	1,36
1088,78	-6,64
1089,02	8,36
1089,26	-11,64
1089,50	-2,64
1089,74	0,36
1089,98	5,36
1090,22	-5,64
1090,46	12,36
1090,70	-2,64
1090,94	0,36
1091,18	1,36
1091,42	-17,64
1091,66	-4,64
1091,90	-6,64
1092,14	11,36
1092,38	3,36
1092,62	-16,64
1092,86	-11,64
1093,10	13,36
1093,34	-21,64
1093,58	9,36
1093,82	1,36
1094,06	10,36
1094,30	7,36
1094,54	-1,64
1094,78	2,36
1095,01	-0,64
1095,25	-0,64
1095,49	-6,64
1095,73	3,36
1095,97	-17,64
1096,21	4,36
1096,45	-3,64
1096,69	3,36
1096,93	-0,64
1097,17	-9,64
1097,41	13,36
1097,65	16,36
1097,89	18,36
1098,13	7,36
1098,37	19,36
1098,61	-9,64
1098,85	5,36
1099,09	12,36
1099,33	-1,64
1099,57	2,36
1099,81	-12,64
1100,05	-2,64
1100,29	13,36
1100,53	-2,64
1100,77	-5,64
1101,00	-13,64
1101,24	-9,64
1101,48	2,36
1101,72	-8,64
1101,96	24,36
1102,20	6,36
1102,44	-10,64
1102,68	4,36
1102,92	4,36
1103,16	-9,64
1103,40	-9,64
1103,64	-5,64
1103,88	7,36
1104,12	8,36
1104,36	-6,64
1104,60	6,36
1104,84	11,36
1105,07	9,36
1105,31	9,36
1105,55	-2,64
1105,79	3,36
1106,03	-5,64
1106,27	-3,64
1106,51	19,36
1106,75	-7,64
1106,99	-4,64
1107,23	20,36
1107,47	-11,64
1107,71	16,36
1107,95	18,36
1108,18	9,36
1108,42	-5,64
1108,66	28,36
1108,90	-10,64
1109,14	-12,64
1109,38	19,36
1109,62	0,36
1109,86	5,36
1110,10	4,36
1110,34	6,36
1110,58	4,36
1110,82	-10,64
1111,05	-14,64
1111,29	-4,64
1111,53	3,36
1111,77	-16,64
1112,01	-1,64
1112,25	-0,64
1112,49	-3,64
1112,73	4,36
1112,97	-5,64
1113,21	8,36
1113,45	-20,64
1113,68	-2,64
1113,92	11,36
1114,16	-2,64
1114,40	0,36
1114,64	27,36
1114,88	-4,64
1115,12	5,36
1115,36	6,36
1115,60	11,36
1115,83	0,36
1116,07	8,36
1116,31	4,36
1116,55	-3,64
1116,79	-15,64
1117,03	-9,64
1117,27	-9,64
1117,51	-9,64
1117,75	-17,64
1117,98	17,36
1118,22	7,36
1118,46	15,36
1118,70	8,36
1118,94	9,36
1119,18	-3,64
1119,42	1,36
1119,66	-11,64
1119,89	11,36
1120,13	-12,64
1120,37	-2,64
1120,61	2,36
1120,85	-2,64
1121,09	-10,64
1121,33	-4,64
1121,57	-9,64
1121,80	-6,64
1122,04	-13,64
1122,28	-14,64
1122,52	4,36
1122,76	9,36
1123,00	-6,64
1123,24	-3,64
1123,47	8,36
1123,71	-3,64
>>>>>End Processed Spectral Data<<<<<
